#"Step","Potential Energy (kJ/mole)","Kinetic Energy (kJ/mole)","Total Energy (kJ/mole)","Temperature (K)"
5,4.340953653671626,4.754217545559726,9.095171199231352,23.338786243963998
10,4.341295182671369,10.666274991913392,15.00757017458476,52.361489492230916
15,4.344268984301987,13.26013106016472,17.604400044466708,65.09491023799939
20,4.349577770616286,15.3584282390375,19.708006009653786,75.39559775697133
25,4.357884173773396,16.393130262026798,20.751014435800194,80.4750223119748
30,4.368410126348041,18.10992032530351,22.47833045165155,88.90286473369957
35,4.383024665758531,24.767218642180318,29.150243307938847,121.58400750660495
40,4.410366183917151,27.72692633332615,32.1372925172433,136.11341944165267
45,4.4481442148561525,27.084353051810194,31.532497266666347,132.95898228776392
50,4.489621670100711,30.494098986353446,34.98372065645415,149.69766341666065
55,4.542376134608761,37.591373481740504,42.13374961634926,184.5386800035603
60,4.608223366461986,45.17624314302806,49.784466509490045,221.77333534205025
65,4.685733713149589,46.963672263248725,51.64940597639831,230.54794983187904
70,4.772732568165167,48.866040810305364,53.63877337847053,239.88681000214248
75,4.874797079579091,54.21778972698689,59.092586806565976,266.158919513507
80,5.000460105088936,59.87403172055677,64.8744918256457,293.92580682293465
85,5.152734472413279,58.29128024327762,63.4440147156909,286.1559691889718
90,5.331777852113801,56.05086224290616,61.382640095019966,275.15760062322653
95,5.525092102612339,56.32455138625881,61.84964348887115,276.5011597584131
100,5.7488141105213915,59.17481330850706,64.92362741902845,290.4932947638444
105,5.990059501200538,61.84496343733005,67.83502293853059,303.60124838580174
110,6.246472209574957,53.35022813426384,59.59670034383879,261.8999990135507
115,6.5105587545427435,56.61099079839146,63.121549552934205,277.90731085426575
120,6.7837421075146285,49.109129285699176,55.8928713932138,241.08014831937746
125,7.0718289481197285,51.29959624192515,58.37142519004488,251.83330371790808
130,7.390328603971669,57.041344464289324,64.43167306826099,280.0199470812464
135,7.744481209333037,53.932901248833716,61.677382458166754,264.76038206096763
140,8.131317399435634,55.02927735518979,63.16059475462542,270.14256900214633
145,8.5358041637064,58.950177925861134,67.48598208956753,289.3905439687528
150,8.942965561963604,62.7095135446794,71.652479106643,307.8453852935601
155,9.40287201198165,66.15516328886599,75.55803530084765,324.76032073361944
160,9.92651656582539,67.39121474554086,77.31773131136626,330.82818373261455
165,10.452535991010786,60.75140450278415,71.20394049379493,298.2328911379554
170,10.980676267795571,55.68161245106142,66.66228871885698,273.34492758504354
175,11.537217784700857,59.08259578408209,70.61981356878294,290.0405924905729
180,12.116023653504357,53.892975654472636,66.00899930797699,264.5643845275088
185,12.784504815315985,67.71135810163858,80.49586291695456,332.39978984524777
190,13.508746069596533,68.61575307567827,82.1244991452748,336.8395279886866
195,14.305001126607445,68.53767567486777,82.84267680147522,336.4562405706124
200,15.16984927761521,65.74205696767443,80.91190624528964,322.73235292736604
205,16.107831998651474,67.39139507689526,83.49922707554674,330.8290689918382
210,17.14157699073501,65.98328518734087,83.12486217807589,323.9165591192062
215,18.233443589936957,62.967279214605895,81.20072280454285,309.11077498467034
220,19.30397712071452,62.377318875929454,81.68129599664397,306.21461844474806
225,20.403554965258454,58.469649103011385,78.87320406826984,287.0315943891257
230,21.443296216815707,55.24471923143154,76.68801544824724,271.20018823168726
235,22.482321026523124,58.52336522666238,81.0056862531855,287.29529059480643
240,23.514725619959748,62.98319173164653,86.49791735160628,309.18889064308433
245,24.625312496597726,64.42265127748449,89.04796377408222,316.25529816970715
250,25.860339872350735,67.40561216893776,93.2659520412885,330.89886169042865
255,27.043026575605868,60.75058786932804,87.79361444493391,298.2288822272378
260,28.07609541549192,64.32825405805163,92.40434947354355,315.79189562128454
265,28.98111502057243,55.15354077047756,84.13465579105,270.75258679362383
270,29.803409530099405,58.118093335078335,87.92150286517774,285.30578255111146
275,30.567483987129943,52.914419822203946,83.48190380933389,259.76058554728894
280,31.32358913129886,49.01014662724345,80.3337357585423,240.5942355302761
285,31.953114507047697,45.958884505178624,77.91199901222632,225.61537649432702
290,32.67094117669768,47.559976052201556,80.23091722889924,233.47524681260597
295,33.36829337429133,48.568849957384195,81.93714333167553,238.42787933194913
300,33.91341091041558,48.444547491734234,82.35795840214982,237.817669839514
305,34.42333504720814,44.234190133636375,78.65752518084452,217.1487312708272
310,34.78293064648169,46.719239801910064,81.50217044839175,229.34801379369816
315,35.0013774754213,48.822222864145765,83.82360033956707,239.67170464163505
320,35.138087829434255,55.78326831966877,90.92135614910302,273.8439633496327
325,35.30245596966752,57.30036145910021,92.60281742876774,281.2914796136798
330,35.47330530693292,57.390768935124214,92.86407424205714,281.7352962328312
335,35.63634780787693,60.59704761816366,96.23339542604059,297.4751424020343
340,35.82144411925355,62.97078430034241,98.79222841959596,309.1279816955512
345,36.08978169472387,70.16309266834257,106.25287436306644,344.43552620583654
350,36.38278210080654,71.29044377575511,107.67322587656165,349.96977159230835
355,36.634979053654355,70.84012370598104,107.4751027596354,347.7591188930772
360,36.83867080010846,70.78274066568018,107.62141146578864,347.4774215372501
365,37.0714082736749,78.3924178292582,115.4638261029331,384.8338586384919
370,37.152422974301345,82.48183261297535,119.6342555872767,404.90908165583573
375,36.99398561714897,87.14716496220376,124.14115057935274,427.8115242580649
380,36.82163354817662,97.67927069775621,134.50090424593282,479.5143674925863
385,36.54377727694286,90.83443736893821,127.37821464588107,445.9126022376402
390,36.16637327971769,92.95077739262378,129.11715067234147,456.30186334296644
395,35.674712046641076,97.65617676565539,133.33088881229645,479.40099776567155
400,35.11504091453347,96.88202483763378,131.99706575216726,475.6006318389327
405,34.66868475103058,94.57616643779374,129.24485118882433,464.2810117780086
410,34.38481589969319,101.64897165719297,136.03378755688615,499.0019069787176
415,34.197771685476646,99.78268302870423,133.98045471418087,489.84016565063723
420,33.96003519310583,103.15685413116373,137.11688932426955,506.40420744220637
425,33.57763728449731,96.7496174425519,130.3272547270492,474.95063468139364
430,33.29005178450793,100.35816417972237,133.6482159642303,492.6652428462709
435,33.18626796090296,110.06713622578093,143.2534041866839,540.3272652632331
440,32.98371054282955,114.91600297856068,147.89971352139023,564.1306910812806
445,32.678184626366956,116.15345222106559,148.83163684743255,570.2054159086185
450,32.56880112508899,118.06723805435404,150.63603917944303,579.6003243350455
455,32.145501685158244,126.12783344268105,158.2733351278393,619.1703505201003
460,31.652876262504996,127.54691118016869,159.19978744267368,626.1367023248731
465,31.255204898059414,124.06450404698258,155.31970894504198,609.0413222929277
470,30.896278027165966,131.14297495126044,162.03925297842642,643.7900307367289
475,30.54029879827514,129.51448947918644,160.05478827746157,635.7956817255792
480,30.057213183072584,127.00604069684944,157.06325387992203,623.4815313162079
485,29.631819822771302,126.86919134122788,156.50101116399918,622.809728263893
490,29.281367297140264,134.90375355614768,164.18512085328794,662.2519557810115
495,28.93424346588081,134.54481467070897,163.4790581365898,660.489899703093
500,28.699848693618687,140.08859043980448,168.78843913342317,687.7046824553521
505,28.520383709225282,129.31403942637536,157.83442313560064,634.811658405166
510,28.497308852693468,123.47740897860413,151.9747178312976,606.1592315651764
515,28.69195354193522,115.48563659838712,144.17759014032234,566.9270623375604
520,28.871384850145535,129.98585746196835,158.8572423121139,638.1096601009841
525,29.297600778140886,132.10835566488507,161.40595644302596,648.5291521386038
530,29.955128117977356,125.54478665501549,155.49991477299284,616.3081330853375
535,30.87078993506531,114.55445403560925,145.42524397067456,562.3558220485929
540,31.986687250152794,109.9528196020444,141.93950685219718,539.7660769667467
545,33.2760155932402,99.30638997023348,132.58240556347369,487.5020097344203
550,34.444091850349885,101.05350806147132,135.4975999118212,496.07873456529086
555,35.38666719825027,94.44580342869575,129.83247062694602,463.641050654164
560,36.16580624721686,80.77696897738456,116.9427752246014,396.53978690126087
565,36.94426406075126,90.44920384937933,127.3934679101306,444.0214639628695
570,37.578772654035426,82.28830449118321,119.86707714521864,403.9590385786272
575,38.244707713019224,81.69470694209369,119.93941465511291,401.0450267185514
580,38.925446652028974,97.90836104266349,136.83380769469247,480.6389880088142
585,39.72011150039416,111.08165641805124,150.8017679184454,545.3076158005567
590,40.36501098063259,115.81394185862581,156.1789528392584,568.5387358081268
595,41.03509037488688,111.97797774807486,153.01306812296173,549.707719861185
600,41.68167736199876,111.30957734577227,152.99125470777102,546.4264955660768
605,42.34327321430246,106.92336628427888,149.26663949858136,524.8942788755063
610,43.040067641572,105.6216671144524,148.6617347560244,518.5041466639714
615,43.518437132345156,109.09401211195907,152.61244924430423,535.5501309685379
620,43.572939226872094,103.49010051897626,147.06303974584836,508.04013725341025
625,43.32435130004435,109.02235174295797,152.34670304300232,535.1983452081571
630,42.95265757560791,107.07629658614984,150.02895416175775,525.6450244169939
635,42.53930329101188,102.96296343661682,145.5022667276287,505.4523844700013
640,41.989403044059856,97.0811480710051,139.07055111506497,476.5781417099736
645,41.24782888121216,102.27438990113698,143.52221878234914,502.07212885405386
650,40.10228834726269,105.47871709637066,145.58100544363336,517.8023950332122
655,38.585226070035276,106.81647251444248,145.40169858447774,524.3695298876622
660,37.04715888299034,104.0423096665065,141.08946854949684,510.7509705572432
665,35.7468080966939,101.46615909434256,137.21296719103646,498.10446732935577
670,34.568414274230506,97.47299235486966,132.04140662910015,478.5017326888036
675,33.60744916046447,96.56966770929459,130.17711686975906,474.06724886261196
680,32.81994536384116,92.44327361820089,125.26321898204205,453.8104918405574
685,32.23173251135438,93.44849008933818,125.68022260069256,458.74516976052263
690,31.85335182651886,96.6658473459129,128.51919917243174,474.53940142158626
695,31.51631691983761,94.4025695131274,125.91888643296501,463.42881234065186
700,31.195544932947296,93.07137640549887,124.26692133844617,456.8938923268638
705,30.99656805911778,95.96876321871355,126.96533127783132,471.1173667160098
710,30.857975841219517,100.66763467537163,131.52561051659114,494.1844551409455
715,30.725031005435266,98.28948267809922,129.0145136835345,482.50994075700976
720,30.72204202377986,97.10025557524192,127.82229759902178,476.67194178385853
725,30.817506517282677,89.75791371059746,120.57542022788014,440.62787235142576
730,30.92169017189794,86.5896186297787,117.51130880167663,425.07449034052195
735,31.015488745193014,98.99249124519392,130.00797999038693,485.9610589521421
740,30.9863046746928,92.23189452494447,123.21819919963727,452.772817096674
745,31.05792873049922,91.64527475330618,122.7032034838054,449.8930596338427
750,31.198357125055146,98.76684117268834,129.96519829774348,484.85332697360417
755,31.232469204696613,103.28869907840651,134.52116828310312,507.051443503989
760,31.346202725392107,94.39431548021635,125.74051820560845,463.3882927161468
765,31.510360742629373,88.84580152104645,120.35616226367583,436.1502498576198
770,31.652875010964024,104.5174950740774,136.17037008504144,513.0836889377695
775,31.817088469768333,101.51885195265558,133.3359404224239,498.3631402539677
780,31.99787310123399,100.97311410666052,132.9709872078945,495.68407502170544
785,32.15289350353997,102.01473156546058,134.16762506900056,500.79744793448276
790,32.31808597584132,99.08600034133542,131.40408631717673,486.42010164124895
795,32.48171956356982,95.51861228615539,128.0003318497252,468.90754432319403
800,32.6757925556705,99.42957062017439,132.1053631758449,488.1067121551264
805,32.998267879256076,99.07433491745032,132.0726027967064,486.362835260001
810,33.394944562753864,104.81419643222993,138.20914099498378,514.5402166439287
815,33.8901702896706,94.17091437523113,128.06108466490173,462.2916010763658
820,34.32474241378388,90.7959750376703,125.12071745145418,445.7237879649857
825,34.78771075652993,84.6144036744403,119.40211443097023,415.37802206014663
830,35.27989502142983,84.42379808574405,119.70369310717388,414.44232590218655
835,35.83708603727548,84.27204415927056,120.10913019654605,413.69735526975205
840,36.31705579594354,78.02859056106934,114.34564635701287,383.047805147962
845,36.888917666263744,85.87047403084351,122.75939169710725,421.5441592371998
850,37.56049493836751,82.30088748520822,119.86138242357573,404.0208093758287
855,38.24063210612229,86.98344808960964,125.22408019573193,427.0078266869318
860,38.928559484230746,89.3850669600783,128.31362644430905,438.79754159168795
865,39.46442150573441,88.16400152684886,127.62842303258327,432.80324602928744
870,39.89682969500425,92.72726290873392,132.62409260373818,455.2046151182176
875,40.300176759205826,92.14986833209659,132.4500450913024,452.3701447824736
880,40.52076796665149,86.36966997607655,126.89043794272804,423.99474702541085
885,40.620965128473976,87.63881605848768,128.25978118696165,430.22507385541087
890,40.70699999948561,87.90083699975445,128.60783699924005,431.5113529709677
895,40.7351161698729,88.74290899499309,129.47802516486598,435.64514325518763
900,40.91767503903703,83.65576606261759,124.57344110165462,410.67200301635035
905,41.029512309216294,79.86121481762406,120.89072712684035,392.04428572112823
910,41.12972835089402,75.49512866478473,116.62485701567874,370.6108636138419
915,41.324100012572444,80.15482911648085,121.4789291290533,393.48565883742367
920,41.407550447538945,84.14980151817637,125.55735196571533,413.0972576000399
925,41.55912172595211,88.54031282539879,130.0994345513509,434.65058449747505
930,41.45108047075409,87.86858805986236,129.31966853061647,431.353040670884
935,40.90190792521845,93.62883380666372,134.5307417318822,459.6304896746342
940,40.251154063653956,101.0545646906194,141.30571875427336,496.0839216316356
945,39.78771889558435,101.62675323104335,141.4144721266277,498.89283517171384
950,39.46881741237318,98.10107690610992,137.5698943184831,481.58504365302804
955,39.27431174818806,103.07566832360996,142.34998007179803,506.0056606381564
960,39.03756162349531,95.35589516415514,134.39345678765045,468.10875459760734
965,38.94783370830008,98.25917740872336,137.20701111702346,482.36117007134993
970,38.876887976811894,99.22450990623506,138.10139788304696,487.1000547769561
975,38.829210659581314,102.22796868369682,141.05717934327814,501.8442438528652
980,38.84328593701022,98.2966683168805,137.13995425389072,482.54521556005267
985,38.8492074758427,94.80531692514589,133.65452440098858,465.40592753770215
990,38.71046912068305,101.11433661175454,139.8248057324376,496.3773461704573
995,38.690406301617834,94.39291324172886,133.0833195433467,463.3814090293973
1000,38.644211755727454,101.41127343585842,140.0554851915859,497.8350297954304
1005,38.51726367525964,101.599179345994,140.11644302125364,498.75747304263257
1010,38.22016411706644,99.04357638230955,137.26374049937598,486.21183946101866
1015,37.58664997268149,110.37144395430494,147.95809392698644,541.82113317322
1020,36.92812803746808,116.19235691996087,153.12048495742894,570.3964017948766
1025,36.33045188183407,112.8759580512663,149.20640993310036,554.1159679370537
1030,35.72625549154386,124.34336133623229,160.06961682777614,610.4102522175688
1035,35.15424923666493,123.94690767028199,159.10115690694693,608.4640334598907
1040,34.79252760218819,121.27416860835051,156.06669621053868,595.3433705843413
1045,34.504796440823604,105.60358148158733,140.10837792241094,518.4153630280775
1050,34.39495392803629,109.61631583309331,144.0112697611296,538.1141564438475
1055,34.34530936116924,115.33092030764709,149.67622966881635,566.1675492518765
1060,34.29288870764232,110.12289074182273,144.41577944946505,540.600968079641
1065,34.206162976513106,118.27721093647816,152.48337391299125,580.6310958901881
1070,34.16545261178972,107.69091397191384,141.85636658370356,528.6622241245603
1075,34.08944965043695,102.77533110259286,136.8647807530298,504.5312842270536
1080,33.865295647208576,113.38459174144221,147.2498873886508,556.6128862748737
1085,33.65365306896812,111.4343366861375,145.0879897551056,547.0389478884241
1090,33.53303442363911,114.26661261865611,147.79964704229522,560.9427884130783
1095,33.354858205892974,106.21446940420911,139.56932761010208,521.414254540395
1100,33.14716303021171,107.74187756652343,140.88904059673513,528.9124079727791
1105,33.050803388862,103.57350457488495,136.62430796374696,508.4495735936868
1110,32.960492075352164,97.75162097248793,130.7121130478401,479.8695400484221
1115,33.066688221160554,94.91015758209613,127.97684580325668,465.92059765087856
1120,33.206988900316745,101.30765707241031,134.51464597272707,497.32636982463225
1125,33.40109280456441,95.25969850641222,128.66079131097663,467.63651848074255
1130,33.60784519855163,95.68313428921854,129.2909794877702,469.715194336077
1135,33.78986369059144,89.10574097647529,122.89560466706672,437.42631081370547
1140,34.02569399355295,89.68699220036454,123.71268619391749,440.2797137003831
1145,34.21510373845849,94.96452568459515,129.17962942305363,466.1874944662966
1150,34.46761472341973,94.98435124588495,129.4519659693047,466.2848195324458
1155,34.78336289696815,90.2912540040832,125.07461690105134,443.246077131849
1160,35.05481667058892,86.89670462853847,121.95152129912739,426.5819969732932
1165,35.16907273350455,79.87732195984569,115.04639469335024,392.1233568081597
1170,35.02811284709875,78.50039471827286,113.5285075653716,385.36392473409046
1175,34.77437720011709,72.73395991189298,107.50833711201007,357.05609320426316
1180,34.53659287118101,82.82802564752255,117.36461851870357,406.6085674608117
1185,34.27140630657139,81.23790921651185,115.50931552308325,398.80257475418125
1190,33.969357066633314,77.9343989408817,111.90375600751503,382.58541190060527
1195,33.4819171747956,84.88473174364239,118.36664891843799,416.705081447394
1200,32.83278995031616,74.88812708515829,107.72091703547446,367.63105043093844
1205,32.08651482774061,73.7937660211709,105.8802808489115,362.2587554735961
1210,31.13354443838425,71.78020368765942,102.91374812604367,352.37403723334387
1215,30.286489683672908,78.93543889025139,109.2219285739243,387.4995869832806
1220,29.590439990871438,76.74499427721065,106.33543426808208,376.74654126900805
1225,28.85640885328596,81.54467462645992,110.40108347974588,400.3085075940671
1230,28.08218454872262,78.65085927044098,106.7330438191636,386.1025657379346
1235,27.246492589763488,80.03320467724296,107.27969726700645,392.88859596383554
1240,26.31840038450613,72.17004150481606,98.48844188932219,354.2877783268556
1245,25.267474706799195,77.93442533090847,103.20190003770766,382.5855414510912
1250,24.281571861026734,77.82111256215046,102.1026844231772,382.0292811488624
1255,23.39194647377887,73.94431361655593,97.3362600903348,362.99780414239666
1260,22.628231011463843,78.0179981466139,100.64622915807774,382.9958062450061
1265,21.973404711260358,83.48324308920489,105.45664780046525,409.8250756807654
1270,21.4771694267604,79.63566745533679,101.11283688209718,390.93705795423125
1275,21.061143852548067,82.0411116085118,103.10225546105987,402.74555143917445
1280,20.769130051632192,85.85877333538167,106.62790338701386,421.4867197053162
