#"Step","Potential Energy (kJ/mole)","Kinetic Energy (kJ/mole)","Total Energy (kJ/mole)","Temperature (K)"
5,4.340654933513186,0.5291794854769645,4.86983441899015,2.597779083073844
10,4.340762324204766,1.0858085609871893,5.426570885191955,5.330310122306917
15,4.341533398593902,1.5605168308335753,5.902050229427477,7.6606862003924245
20,4.342693996947137,1.715461867774348,6.058155864721485,8.421322217164782
25,4.345014589322061,2.021492270355413,6.366506859677474,9.92364685451009
30,4.346980788905649,2.281434226591172,6.62841501549682,11.199720087231707
35,4.35107189526591,2.9309054011722813,7.281977296438192,14.388019480329875
40,4.35517159391799,3.0389067232474796,7.394078317165469,14.918205519530527
45,4.361012192863528,4.030639303694139,8.391651496557667,19.786690077591363
50,4.36842248912886,4.493360151767895,8.861782640896756,22.058219064291887
55,4.377330790131085,3.912423632694757,8.289754422825842,19.20636108555393
60,4.3861488158744635,3.896308797481697,8.282457613356161,19.12725223308975
65,4.396426656041391,4.433713411839688,8.830140067881079,21.76540904876496
70,4.407369565752136,4.725117589972847,9.132487155724982,23.195932527943924
75,4.420527580394601,5.549190432454538,9.969718012849139,27.24136371316574
80,4.434658783621453,4.819219679348533,9.253878462969986,23.657886262286763
85,4.449553367769742,4.688807657500269,9.138361025270012,23.01768453142519
90,4.464588575084305,5.048355041036954,9.512943616121259,24.782727769039862
95,4.481281651959002,5.629266544547925,10.110548196506928,27.634462944634592
100,4.498275206894779,6.021581491775531,10.51985669867031,29.56036444281248
105,4.517400491925034,6.782650500543976,11.30005099246901,33.29650540446069
110,4.537318480392317,7.090766494106165,11.628084974498481,34.80906835371208
115,4.557597973257801,8.079616044229054,12.637214017486855,39.66339991439395
120,4.582761224429897,7.930867020680793,12.513628245110691,38.93318056045765
125,4.608452709054902,8.14651061815281,12.754963327207712,39.99179005361796
130,4.637374912588705,8.25833389409567,12.895708806684375,40.540738331503924
135,4.669507356221683,7.777208298533843,12.446715654755526,38.17885915291968
140,4.704213267701976,7.939586379262991,12.643799646964968,38.975984501207996
145,4.740502965828662,7.94551609272934,12.686019058558003,39.005093879092556
150,4.77836513156539,8.429816858501177,13.208181990066567,41.38256019017745
155,4.818467618384369,8.713290291433207,13.531757909817575,42.77415108681666
160,4.856390791789845,9.050851562691511,13.907242354481355,44.43126296245986
165,4.895270817586275,9.735850466050962,14.631121283637238,47.79397045946688
170,4.937928178556939,9.690432061331991,14.62836023988893,47.57100833602179
175,4.981747878758773,9.922529045894017,14.90427692465279,48.71038865647449
180,5.028754620480644,10.333280278462524,15.362034898943168,50.72679516806009
185,5.07663786453687,9.899449551316327,14.976087415853197,48.597089804369894
190,5.119499500556721,9.579366089041777,14.698865589598498,47.02577771470108
195,5.163233368131329,9.588201757595558,14.751435125726886,47.069152629231816
200,5.206994980675736,9.06314159472731,14.270136575403047,44.49159558877876
205,5.245290303092483,8.35037556264793,13.595665865740413,40.992577316004166
210,5.282922423878238,7.6785651845532055,12.961487608431444,37.69461321138021
215,5.324412708649496,8.077955920497125,13.402368629146622,39.655250250953706
220,5.365334078464296,8.352952510655868,13.718286589120165,41.005227733900014
225,5.4044280221137715,7.988365138549953,13.392793160663725,39.2154428401112
230,5.4459231237220544,7.858954095610328,13.304877219332383,38.58015498467909
235,5.488986398413167,8.51520253766452,14.004188936077686,41.80172445752364
240,5.5365647375821165,9.201292570455465,14.737857308037581,45.1697883851782
245,5.5869031912897675,9.309398016606327,14.896301207896094,45.70048557674441
250,5.642185627384943,8.129924477587183,13.772110104972125,39.91036753023448
255,5.695102016553467,8.036133773170311,13.73123578972378,39.44994240641981
260,5.749019034251481,8.138815207482725,13.887834241734208,39.95401274474063
265,5.804025531145993,8.081360268955656,13.885385800101648,39.67196243549559
270,5.860084313045545,8.215392116655384,14.075476429700927,40.329934144482486
275,5.914941868067827,7.881591191421694,13.796533059489521,38.691282070316774
280,5.965732422803516,9.277725193256662,15.243457616060178,45.54500147303715
285,6.017645678565053,9.253116157402337,15.27076183596739,45.42419399589287
290,6.079527491581068,10.437643150759579,16.517170642340645,51.23911980297755
295,6.1521653765663915,11.419930939154913,17.572096315721303,56.061239216681365
300,6.2313303774702495,10.249202755064763,16.48053313253501,50.3140527288053
305,6.308694345329222,10.578928115561517,16.88762246089074,51.93269757080142
310,6.392193310544586,10.578860496376754,16.97105380692134,51.93236562349694
315,6.476955887134183,9.596190962107798,16.07314684924198,47.108372192616045
320,6.56700649845421,11.173771797094666,17.740778295548875,54.85282678214577
325,6.660348891366065,11.120549845709245,17.78089873707531,54.59155650265865
330,6.7534166295858755,10.184075458327092,16.93749208791297,49.994338276817864
335,6.844113824848135,10.171728639604916,17.01584246445305,49.933726880686244
340,6.938364125878207,9.946832245966098,16.885196371844305,48.82969476438627
345,7.036752995326756,8.467278097759044,15.5040310930858,41.566460032179826
350,7.133795907457502,8.507126586813733,15.640922494271235,41.762079050300045
355,7.230016648481076,8.459383097289074,15.68939974577015,41.527702923023824
360,7.325469612743563,9.23947383455419,16.56494344729775,45.357222879453026
365,7.427867826047122,8.682593872012434,16.110461698059556,42.62346021824553
370,7.531580344921919,8.333789481637334,15.865369826559252,40.91115508498049
375,7.629989066174842,9.064442291009016,16.69443135718386,44.4979807977424
380,7.720199401921284,8.269485996457645,15.989685398378928,40.5954847815144
385,7.792327876408563,8.184369279064175,15.976697155472738,40.17764086629654
390,7.864308496487431,8.109527442072022,15.973835938559453,39.810237057167775
395,7.935592462346296,7.632917696480272,15.568510158826568,37.47052650173792
400,8.00475329246224,7.521393767247,15.52614705970924,36.923047737773224
405,8.067625054262745,8.02579513687976,16.093420191142506,39.39918931821403
410,8.121172294551204,8.30676534767744,16.427937642228642,40.778491722424164
415,8.17635243651098,8.139503369981893,16.315855806492873,39.95739098255059
420,8.226796228046995,7.959190904658718,16.185987132705712,39.07222448670311
425,8.27479055055067,7.371975810191388,15.646766360742056,36.18954454249187
430,8.310268653853697,7.516113606889221,15.826382260742918,36.89712706150145
435,8.335163341845902,7.6759043470759485,16.01106768892185,37.681550974215725
440,8.352314380870869,7.436771289658153,15.789085670529023,36.5076300803029
445,8.365889032397424,7.696199178750879,16.062088211148303,37.781179721486836
450,8.363326003347257,9.111388417593314,17.474714420940572,44.728442614609904
455,8.350427066453191,9.95524341798636,18.305670484439553,48.87098579576228
460,8.338335445222265,8.585733685537459,16.924069130759726,42.147966792455364
465,8.337174126418558,7.063129314182914,15.400303440601473,34.673395505670634
470,8.341262099938234,6.749660778344937,15.090922878283171,33.134556552252576
475,8.347893552494021,7.4019512865804575,15.749844839074479,36.33669625132752
480,8.347012989263199,6.924575455880539,15.271588445143738,33.99322493055344
485,8.35225654589888,6.722246391864589,15.07450293776347,32.99997741279526
490,8.363331671237354,7.727492338682827,16.090824009920183,37.934800030938604
495,8.381035767863432,8.052355295184718,16.43339106304815,39.52957499184905
500,8.40120899369436,7.337679708671219,15.738888702365578,36.02118258288233
505,8.409536999480672,7.006739022980801,15.416276022461473,34.39657162456107
510,8.412636515389876,6.800105405669202,15.212741921059077,33.38219275379261
515,8.416491745555735,7.487586076967018,15.904077822522753,36.75708342308099
520,8.427653826753351,7.29053584725748,15.718189674010832,35.78975007191574
525,8.442606539967322,8.350930824197352,16.793537364164674,40.99530313376224
530,8.461490362538783,8.491146197111977,16.95263655965076,41.6836302002484
535,8.482700584561872,7.640001655032621,16.122702239594492,37.50530214942968
540,8.50271848046602,7.564870977048325,16.067589457514345,37.13648039968093
545,8.534115361419824,8.114060961229923,16.648176322649746,39.83249241960023
550,8.573829786398312,8.44283044596595,17.01666023236426,41.44644480067264
555,8.609080675506116,7.860014470213866,16.469095145719983,38.58536043772648
560,8.627348707326663,6.975516453990336,15.602865161316998,34.243297850975246
565,8.638480440249534,6.0084528504064885,14.646933290656023,29.49591502465914
570,8.64332164830788,6.383010278056399,15.026331926364279,31.334643618005636
575,8.642665127181406,5.644177660320526,14.286842787501932,27.70766265422734
580,8.637026925827698,6.575541311907793,15.212568237735491,32.27979192081812
585,8.63107764113452,7.356347673319101,15.98742531445362,36.11282492620205
590,8.630728046714934,7.921175654465281,16.551903701180215,38.88560496629347
595,8.631266156061224,7.944620089971918,16.575886246033143,39.0006953389271
600,8.635946008069107,7.753934974688428,16.389880982757536,38.06460877939145
605,8.643566709898101,7.8845630808044795,16.52812979070258,38.70587128302756
610,8.655459183996452,8.352312250347588,17.00777143434404,41.0020846512934
615,8.66524040001685,9.69044333784049,18.35568373785734,47.57106369319021
620,8.661599496999505,9.690751983351243,18.352351480350748,47.57257885557637
625,8.657139194872641,10.073832007699004,18.730971202571645,49.453145471829586
630,8.65448554137012,9.618920400490772,18.273405941860894,47.21995259439237
635,8.650418644439362,10.100093532867827,18.75051217730719,49.58206513452531
640,8.639185741542352,10.534783932127738,19.17396967367009,51.715990688711535
645,8.623083791697772,10.183714267390451,18.806798059088223,49.99256516526318
650,8.599968457283232,10.892401407679358,19.49236986496259,53.4715598731298
655,8.571580191046264,11.290612812059946,19.86219300310621,55.42640749162536
660,8.545581654872512,10.862968713198917,19.40855036807143,53.32707271862327
665,8.533821561170184,10.51127044481992,19.045092005990103,51.60056133595929
670,8.520410061913186,10.685873261075926,19.206283322989112,52.45769876543998
675,8.502277183284438,11.28281699379282,19.78509417707726,55.38813727483581
680,8.478646066609702,11.826879142222076,20.305525208831778,58.058976390618696
685,8.462234283187552,9.82156051668153,18.28379479986908,48.21472708901876
690,8.45052301224478,9.889757157831529,18.34028017007631,48.54950916726899
695,8.435874695687877,10.027242073773659,18.463116769461536,49.22443222962223
700,8.426800787026899,10.761529117089907,19.188329904116806,52.82909865084563
705,8.425014080448836,10.022120908525565,18.4471349889744,49.19929207145743
710,8.421539815498548,9.906351306883266,18.327891122381814,48.63097100487057
715,8.419302438433077,9.38398777676276,17.803290215195837,46.06665192306683
720,8.414271942416368,9.752646445440945,18.166918387857315,47.87642309630655
725,8.408608724137816,9.093151473069504,17.501760197207318,44.63891617920693
730,8.402744281374597,9.385336500276255,17.78808078165085,46.073272901068364
735,8.39568247686329,9.388143169671732,17.78382564653502,46.08705103731282
740,8.39359845330093,8.820952413998194,17.214550867299124,43.30267197191214
745,8.399019378841592,8.44096216697535,16.83998154581694,41.43727328851783
750,8.394959415230357,9.258382174975544,17.6533415902059,45.45004524424663
755,8.38284131177739,9.355576981137979,17.73841829291537,45.927181341471965
760,8.368180970166252,8.32593524683838,16.694116217004634,40.87259809735297
765,8.35984556442547,7.8219520248647365,16.181797589290206,38.39850923299868
770,8.354240186832914,8.900346662617176,17.254586849450092,43.69242388792389
775,8.34557055227455,9.18907464128933,17.534645193563883,45.10980971688638
780,8.338037616995758,9.15753638895603,17.495574005951788,44.95498623170477
785,8.33658384357425,9.251077429111692,17.587661272685942,45.414185736209994
790,8.33805144116124,9.75688137745772,18.094932818618958,47.89721267359241
795,8.338087339130409,10.228318147368626,18.566405486499036,50.211528729821616
800,8.337929754331704,10.426684296929201,18.764614051260907,51.18532202351647
805,8.33617717739734,11.34700142669246,19.6831786040898,55.70322314233757
810,8.325012315657002,11.476451591848473,19.801463907505475,56.33870305146451
815,8.309599901210483,12.092530468252908,20.402130369463393,59.36307731874087
820,8.293171768217327,11.296624663523474,19.5897964317408,55.45592009067939
825,8.272029156749094,10.767369809873399,19.039398966622493,52.85777101997562
830,8.249656788099923,9.846733444865684,18.096390232965607,48.33830275302542
835,8.235078058935805,9.964600952624838,18.199679011560644,48.916922587380476
840,8.228364125342965,9.74368539980751,17.972049525150474,47.832432696928116
845,8.218385964117532,10.469758060476966,18.6881440245945,51.39677413956514
850,8.207650126235045,10.220361547284973,18.428011673520018,50.17246922385633
855,8.195578413460293,10.403184330593557,18.59876274405385,51.06995904616172
860,8.182935573098787,10.745041735017677,18.927977308116464,52.74816093980931
865,8.169035825569292,11.509031180301598,19.67806700587089,56.4986385284462
870,8.152226095248276,11.137984697266631,19.290210792514905,54.67714540762432
875,8.128696962094976,11.388450444916009,19.517147407010984,55.90669927002236
880,8.098131480116425,12.107097028416023,20.20522850853245,59.43458558076273
885,8.075131817918829,11.526026380987096,19.601158198905924,56.58206915655083
890,8.053758171391507,11.798214856050347,19.851973027441854,57.91826140621025
895,8.03214347855471,11.864448846120034,19.896592324674742,58.2434086931208
900,8.009816360189008,11.70084410955148,19.71066046974049,57.44026160557541
905,7.98649835187706,10.034294362553643,18.020792714430705,49.259052408187785
910,7.969151254749339,10.150286548008632,18.11943780275797,49.82846615426942
915,7.954294258189833,10.524417176865787,18.478711435055622,51.66509956250968
920,7.931780748218774,10.221543208072104,18.153323956290876,50.178270079256706
925,7.904794204367459,9.810321891476145,17.715116095843605,48.15955589232217
930,7.883041549369097,10.564758038294233,18.44779958766333,51.86313567102878
935,7.87128404504549,9.385255969805534,17.256540014851026,46.07287757135864
940,7.851706571638067,10.06455158759787,17.916258159235937,49.40758724086541
945,7.820548325550114,8.883661947725853,16.70421027327597,43.61051745628536
950,7.794513557631436,8.88304304145766,16.677556599089094,43.60747920215415
955,7.7641703150182675,9.157685798076674,16.92185611309494,44.95571969152149
960,7.730655648680107,9.123056435135489,16.853712083815594,44.785721728301695
965,7.695298988483544,9.468029988826366,17.16332897730991,46.47922101651404
970,7.6687754078905375,9.84942629780336,17.518201705693897,48.35152215632292
975,7.6537977465704685,9.902552519950902,17.55635026652137,48.61232249428998
980,7.6386854824553385,10.357890422126466,17.996575904581803,50.84760808351922
985,7.629601096629133,10.532526543077122,18.162127639706256,51.704909008073884
990,7.6314994005062085,9.474710836401254,17.10621023690746,46.512017764240575
995,7.641345716553677,9.714263424378967,17.355609140932643,47.6879981629966
1000,7.657101830944665,10.114799991875952,17.771901822820617,49.654260169756036
1005,7.674103274457461,10.361379778145844,18.035483052603304,50.86473757611919
1010,7.691465596893224,9.957932543135676,17.6493981400289,48.88418689908617
1015,7.7176233972004535,11.014215063885786,18.73183846108624,54.06955162604249
1020,7.745595923772467,10.06208336508996,17.807679288862428,49.395470564048956
1025,7.781261845806146,10.057577842354704,17.83883968816085,49.37335263801217
1030,7.816720557785426,10.451536893353683,18.26825745113911,51.30732515652417
1035,7.8464974448055615,10.006554660264648,17.85305210507021,49.12287627068674
1040,7.878051141775629,10.215518693692824,18.09356983546845,50.148695317064124
1045,7.907195551730418,9.154255256533187,17.061450808263604,44.9388789232947
1050,7.933394396056003,8.43918597929124,16.372580375347244,41.42855385902363
1055,7.957454808636738,7.771052985204886,15.728507793841624,38.14864228954049
1060,7.987982386564839,8.045320644146718,16.033303030711558,39.49504139819176
1065,8.018008905364333,7.501041889308343,15.519050794672676,36.82313894640604
1070,8.046785118341903,7.14623654847795,15.193021666819853,35.08137472789836
1075,8.074282070465365,6.639364883838856,14.71364695430422,32.593106296601476
1080,8.095574233884612,6.610960804163792,14.706535038048404,32.45366868407321
1085,8.113223382838003,6.407987434942046,14.521210817780048,31.457258227023797
1090,8.13170289110352,6.834809460465733,14.966512351569254,33.55255738455115
1095,8.146435003878102,7.443001063782676,15.589436067660777,36.53821247693223
1100,8.158971126966374,7.296869032604455,15.45584015957083,35.82084012146438
1105,8.172726465885008,7.611720070591057,15.784446536476064,37.3664658745649
1110,8.190038134001227,7.051478587777423,15.24151672177865,34.616201275377435
1115,8.21088694379975,6.494407980634737,14.705294924434487,31.8815027264982
1120,8.232361854795483,6.514882931107798,14.74724478590328,31.982015689539374
1125,8.246813400691565,6.670878637573663,14.917692038265228,32.747809516450666
1130,8.256893806895091,8.069539055734435,16.326432862629524,39.6139312735072
1135,8.257656772738367,6.684399097653384,14.942055870391751,32.81418240004228
1140,8.265416354053473,6.8247080553037325,15.090124409357205,33.50296888053753
1145,8.277118944826698,6.718027259690658,14.995146204517356,32.9792653980423
1150,8.30186962423734,8.500982759182945,16.802852383420287,41.731918571015996
1155,8.337184367696103,9.25540056999828,17.592584937694383,45.43540833700344
1160,8.373516984631314,8.617285119531134,16.990802104162448,42.30285498732913
1165,8.416511763195281,8.226632605804342,16.64314436899962,40.38511449140838
1170,8.467133636295737,7.857072845292908,16.324206481588647,38.570919795374245
1175,8.52011987107365,7.6140099144225255,16.134129785496174,37.3777068779903
1180,8.570958620111284,7.080020842826023,15.650979462937308,34.75631720047266
1185,8.618917669678488,7.581198904844102,16.20011657452259,37.216635338528526
1190,8.669276211479362,8.177772452326384,16.847048663805744,40.145256582732245
1195,8.717599430280742,9.70431228935678,18.42191171963752,47.639147345602986
1200,8.75548620476059,10.053076476549316,18.80856268130991,49.35125511863468
1205,8.786066000980588,9.919139328215088,18.705205329195678,48.69374829545236
1210,8.816562045442195,9.309328694901147,18.125890740343344,45.700145271648196
1215,8.851042363002888,8.259591140035695,17.110633503038585,40.54691023970314
1220,8.888529337913896,8.56103442684458,17.449563764758476,42.02671640509018
1225,8.94701125996771,6.755162025680127,15.702173285647836,33.161562559950106
1230,9.005766909988969,6.476954784513679,15.482721694502647,31.795823766787198
1235,9.057438328926086,5.747861628119063,14.805299957045149,28.21665449950715
1240,9.10720482134909,5.265856312319583,14.373061133668672,25.850456712785128
1245,9.157047806625279,4.949597192659887,14.106644999285166,24.297918588328546
1250,9.205694387792729,5.2565821800022094,14.462276567794937,25.80492934899094
1255,9.238659734574787,4.441992501921848,13.680652236496634,21.806051680674496
1260,9.276017656962551,5.036705056812841,14.312722713775393,24.725537182166935
1265,9.314263141638538,5.7340144851381964,15.048277626776734,28.148677906719158
1270,9.347824601253466,6.13792952268132,15.485754123934786,30.131525059085174
1275,9.393011465085465,6.060934574428998,15.453946039514463,29.75355147628093
1280,9.431479576501566,6.3259357009088095,15.757415277410376,31.054460529359158
1285,9.463704064419872,6.039597599259783,15.503301663679654,29.64880677375208
1290,9.50025151148284,5.512303562879942,15.012555074362783,27.060283492086135
