#"Step","Potential Energy (kJ/mole)","Kinetic Energy (kJ/mole)","Total Energy (kJ/mole)","Temperature (K)"
5,4.340346638262752,0.038897042191675855,4.379243680454428,0.1909482989649547
10,4.3406069337531745,0.11677170654290482,4.4573786402960796,0.5732404695895947
15,4.340875336856815,0.13758848343418761,4.478463820291003,0.6754314824109778
20,4.340511834805907,0.22420660718857943,4.564718441994486,1.100645906400692
25,4.340498022312741,0.30184541978018375,4.642343442092925,1.4817802642516436
30,4.341044004906735,0.39296779565560186,4.734011800562336,1.9291063767440715
35,4.341105144176653,0.38015795700952765,4.72126310118618,1.8662219834416198
40,4.341607937742793,0.4114825586995499,4.7530904964423435,2.0199966426815075
45,4.342264206749178,0.4480737228412415,4.79033792959042,2.1996252251216064
50,4.342517856022677,0.4127025251273436,4.75522038115002,2.025985543149405
55,4.343011117670343,0.38083460850194967,4.723845726172293,1.8695437129148629
60,4.3438816933616256,0.4774910499631648,4.82137274332479,2.3440369401910104
65,4.344795590885451,0.4477656636240298,4.792561254509481,2.198112940891428
70,4.345471824716259,0.46063848324065043,4.806110307956909,2.2613065121805698
75,4.346833464390322,0.5345380215202593,4.881371485910581,2.624084511064163
80,4.348224163487049,0.5998407389717721,4.948064902458821,2.944660115597506
85,4.349890477658043,0.7276929213254335,5.077583398983476,3.5722954154510607
90,4.351621653925292,0.7177776231373207,5.0693992770626135,3.52362052358086
95,4.3535076250145055,0.7164754372587546,5.06998306227326,3.5172280020821023
100,4.355538487763075,0.7080241049503008,5.063562592713376,3.475739821044209
105,4.357122059848976,0.736470701991676,5.093592761840652,3.6153861542955985
110,4.3594347319941615,0.7497734250891218,5.109208157083283,3.6806901518217314
115,4.361976603550636,0.6985947819247825,5.060571385475419,3.4294506152161346
120,4.364432736236875,0.7022525416930102,5.066685277929885,3.44740681359039
125,4.366745184714957,0.7041207394567648,5.070865924171722,3.4565779269969363
130,4.3694972090854005,0.7676013121797677,5.137098521265168,3.768208495692788
135,4.372503179262321,0.7857327809414187,5.158235960203739,3.857217143206722
140,4.37577446624362,0.8799830253789215,5.255757491622542,4.319898181103834
145,4.379283290180789,0.8316129887420577,5.210896278922847,4.082446290259078
150,4.383118989508749,0.8601435111902345,5.243262500698984,4.222504619198719
155,4.386634503243584,0.7737809477199654,5.160415450963549,3.798544758507051
160,4.389753770654496,0.7759294551003484,5.165683225754844,3.8090919314148555
165,4.393511882710955,0.758081113142533,5.1515929958534885,3.7214731731710984
170,4.396466379741131,0.8542955958280329,5.250761975569164,4.193796793924991
175,4.3996942565642625,0.7994927984173216,5.199187054981584,3.924766030800905
180,4.4029700473542315,0.7855231620245434,5.188493209378775,3.856188109291727
185,4.40576227529354,0.8696770928397245,5.275439368133265,4.269305637899395
190,4.408866103286802,0.895833925080592,5.304700028367394,4.397711355693901
195,4.41212360319639,1.0152659094764556,5.427389512672845,4.984011315213178
200,4.415963604927445,0.9840395285171032,5.400003133444548,4.830718828405634
205,4.419363490699722,0.87383952205398,5.293203012753702,4.289739293859853
210,4.423811488803858,0.9193773155110695,5.343188804314928,4.513287504965466
215,4.427786851713874,0.8082260660610158,5.2360129177748895,3.9676382521063585
220,4.432127124412336,0.8549523588719069,5.287079483284243,4.19702088961414
225,4.4368681239929115,0.7769379430418539,5.213806067034765,3.8140426692115295
230,4.440984671513956,0.776085582328676,5.217070253842632,3.8098583708917793
235,4.445284173560601,0.7070640454581478,5.152348219018748,3.4710268218904843
240,4.449297070626595,0.679780420069945,5.12907749069654,3.337089597774526
245,4.452988414964681,0.6833453748719726,5.1363337898366535,3.3545902100827747
250,4.456152215716274,0.7760856413717782,5.232237857088052,3.8098586607384948
255,4.4594650214778335,0.7903720380969623,5.249837059574796,3.8799915808605348
260,4.462557737566955,0.8472160403096555,5.309773777876611,4.159042761034762
265,4.465559946119629,0.7862072408991319,5.2517671870187606,3.859546300303189
270,4.46792387308559,0.9316114133409376,5.399535286426528,4.573345546357726
275,4.470729145160699,0.8264733042798819,5.297202449440581,4.057215219977874
280,4.473756676850654,0.8631279313621005,5.336884608212754,4.237155346428987
285,4.477204437699209,0.8037893519713109,5.28099378967052,3.9458581125202103
290,4.480482169285272,0.9148342044475838,5.395316373732856,4.490985055198036
295,4.483552185124046,0.8759683545186183,5.359520539642665,4.300189881231019
300,4.4861666682526815,0.8034928359646233,5.289659504217305,3.944402494717348
305,4.48950108201946,0.8646678812143167,5.354168963233777,4.244715067893746
310,4.492638330367321,0.8856102320955744,5.378248562462896,4.347522532209354
315,4.49493499321543,0.8769707832059196,5.371905776421349,4.305110873725272
320,4.498616750577616,0.886012407633746,5.384629158211363,4.349496840037715
325,4.501811084190829,0.9923636379165863,5.494174722107416,4.871582463290696
330,4.50496583923794,0.993377071651848,5.498342910889788,4.876557480334621
335,4.5092560656540295,1.0324743776960215,5.541730443350051,5.068488888549636
340,4.512100131819467,1.073103899734196,5.585204031553663,5.267942052178844
345,4.515688297851302,1.0901572554720949,5.605845553323396,5.351658167500665
350,4.518229022044339,1.1346773546062372,5.652906376650575,5.570210446039594
355,4.521633862643588,1.1188447724785355,5.640478635122124,5.492487193700511
360,4.525212478777109,1.115678665030512,5.640891143807622,5.476944550931911
365,4.529886413132115,0.991358695053911,5.521245108186026,4.866649128533795
370,4.5346304728394236,0.9989576906298645,5.533588163469288,4.903953128974761
375,4.539128897884687,1.0491182299956219,5.588247127880309,5.150194722869161
380,4.544354781801859,1.0233790917225574,5.567733873524416,5.023839493958794
385,4.549023886618442,0.9758987486821961,5.524922635300638,4.790755171167542
390,4.553058952185722,1.0770929634184525,5.630151915604175,5.2875246446345425
395,4.5572229753556055,1.0151739308061063,5.572396906161712,4.98355978549126
400,4.5612170563347485,0.9029429573160738,5.464160013650822,4.432610091848774
405,4.564907023338988,0.9238764059141071,5.488783429253095,4.535373854233777
410,4.569552863238254,1.0019086477885937,5.571461511026848,4.918439583934525
415,4.574825004304291,0.9975331585458836,5.572358162850175,4.896960001401801
420,4.579837421249669,1.0470522142946979,5.626889635544368,5.140052507381868
425,4.58465548669555,1.1075732951536594,5.692228781849209,5.437154723653014
430,4.590320203176496,1.1435696265393616,5.733889829715858,5.613863230516026
435,4.596383679936682,1.1201178116239274,5.71650149156061,5.498736631848804
440,4.602449262726735,1.1303323461084214,5.732781608835156,5.548880495614116
445,4.608934526268026,1.1293617623364434,5.738296288604469,5.544115832035098
450,4.615597660411659,1.0622299425131947,5.677827602924854,5.214561036107339
455,4.623320699874766,1.154494150989032,5.777814850863798,5.667492484647644
460,4.630037462880251,1.1673858654702638,5.797423328350515,5.730778812147885
465,4.637632068407584,1.1724279807840652,5.810060049191649,5.755530908659777
470,4.644680640544845,1.1612861099486989,5.8059667504935435,5.700834685928586
475,4.653133946177527,1.2716901892117,5.924824135389227,6.242816028113356
480,4.661520371977366,1.2368294604734547,5.898349832450821,6.071682274023663
485,4.669731649271423,1.2207178038698265,5.890449453141249,5.992589025575362
490,4.678210146407175,1.1758659038526627,5.854076050259838,5.772407913309286
495,4.687288414776169,1.1116832758659596,5.798971690642128,5.4573309062513
500,4.696394015174824,1.0884802175233617,5.7848742326981855,5.343425470987849
505,4.705885172818723,1.135142672641028,5.8410278454597515,5.572494724797429
510,4.716138839550913,1.218447652484216,5.9345864920351294,5.981444693743159
515,4.7263799689258015,1.2888289330683205,6.0152089019941215,6.326951319678485
520,4.736290347772098,1.1420922068411992,5.878382554613297,5.606610473948284
525,4.744911942753912,1.0871428274778083,5.8320547702317205,5.3368601297726315
530,4.754088713180321,1.1106572958525736,5.864746009032895,5.452294298651094
535,4.763114529068976,1.0264706597882032,5.789585188857179,5.039016217689108
540,4.771947444547524,0.9460306849422438,5.717978129489768,4.644130758534407
545,4.781177173554801,1.1062524499424051,5.887429623497207,5.430670602185829
550,4.790253671839899,1.0843925243789234,5.874646196218823,5.323358699618065
555,4.799351673113397,1.1743443392283144,5.973696012341711,5.7649384462132325
560,4.807598773801511,1.2539303802789867,6.061529154080498,6.1556318846781535
565,4.8162108284099885,1.2776010155919095,6.093811844001898,6.271832687971871
570,4.823822492173351,1.2606698165727732,6.084492308746124,6.188716248521032
575,4.830949860197603,1.0398789482153894,5.870828808412993,5.1048384427977975
580,4.837118325240188,0.941959867486927,5.779078192727114,4.624146831102107
585,4.845002404434456,0.9288534967883079,5.773855901222763,4.5598067412265575
590,4.8533325569495265,1.0214159811989267,5.874748538148453,5.014202447179754
595,4.861427567269658,0.899702999428714,5.761130566698371,4.416704912111436
600,4.8684600474408555,0.872949582148802,5.741409629589658,4.285370516659844
605,4.874553583229596,0.8746289548674246,5.7491825380970205,4.293614674721245
610,4.880485688975509,0.8254762883472797,5.705961977322788,4.052320799074785
615,4.886886948197537,0.858083149236865,5.744970097434402,4.212390158353359
620,4.892021011113291,0.8828349582494656,5.774855969362757,4.333898518911246
625,4.898379616846762,0.906897191099727,5.805276807946489,4.452021701887851
630,4.90500645079609,0.9815393942827065,5.886545845078797,4.818445494693275
635,4.911125534129112,0.9861747959511168,5.8973003300802285,4.841201005491258
640,4.918265996640267,1.0171233378533449,5.935389334493612,4.993129560946839
645,4.92420273209304,0.9668260772629758,5.8910288093560155,4.746216793004206
650,4.929503264033531,0.9307638637665919,5.860267127800123,4.569184866254795
655,4.934948199115148,1.0329459357546005,5.9678941348697485,5.070803800020415
660,4.941778227332222,1.1631894940318366,6.1049677213640585,5.710178531436456
665,4.9483163588305485,1.2379237446341174,6.186240103464666,6.07705419145721
670,4.953083679713403,1.1650484841021564,6.1181321638155595,5.7193044436323275
675,4.958927764103239,1.1587864621195536,6.117714226222793,5.688563740013607
680,4.964019372407299,1.1895418129123447,6.153561185319644,5.839543906809187
685,4.969392405707752,1.2381306473113505,6.207523053019102,6.078069891161939
690,4.975063795078619,1.3022123093521072,6.277276104430727,6.392651249333904
695,4.980828299221756,1.27326664485444,6.254094944076195,6.250554959055497
700,4.985883034963838,1.187729631924678,6.173612666888516,5.830647783671946
705,4.990738908153453,1.212226474020603,6.202965382174057,5.950904493814061
710,4.996242767693441,1.1433339411898793,6.13957670888332,5.612706234661359
715,5.002045569882087,1.13391152719555,6.135957097077637,5.566450945750322
720,5.007243578709482,1.1943320673992999,6.201575646108782,5.86305960091739
725,5.0126563957246315,1.243960404173664,6.256616799898295,6.106688575090463
730,5.016320662229888,1.2017771388812566,6.218097801111145,5.899607977221858
735,5.020868476859546,1.0917438059457496,6.112612282805295,5.35944665467338
740,5.024925780686737,1.0665778171830789,6.091503597869816,5.235905056771843
745,5.030959178052323,1.0995436998478962,6.13050287790022,5.397736879040125
750,5.038308670319704,1.1223971300874778,6.160705800407182,5.509925965507379
755,5.044735550415033,1.173311786471374,6.218047336886407,5.759869572555494
760,5.050115388565431,1.0101121151742198,6.060227503739651,4.958710978740864
765,5.056361732359423,1.030582208835983,6.086943941195406,5.0592000993558885
770,5.0612894310663705,1.0352902075860877,6.096579638652458,5.082311994302338
775,5.06736140742977,0.9887340967312807,6.056095504161051,4.853764791912441
780,5.073200580031704,1.1324959225746403,6.205696502606345,5.559501643717596
785,5.078576318885607,1.1233606812141874,6.201937000099794,5.514656105339203
790,5.0832044131614245,1.0976665608634897,6.180870974024915,5.38852187255642
795,5.088238277151943,1.1161514381921882,6.204389715344131,5.479265427428729
800,5.092620745995917,1.176238626350427,6.268859372346344,5.7742376341035655
805,5.097477039392832,1.19780373667005,6.2952807760628815,5.880102268032077
810,5.102890854210624,1.1861195205479356,6.2890103747585595,5.822743634379102
815,5.10861756903835,1.1632765439992379,6.271894113037588,5.710605865811094
820,5.114100004441248,1.0975941471117945,6.211694151553043,5.3881663883877335
825,5.117252381208136,1.0869208536032462,6.204173234811382,5.335770444506759
830,5.123051025000761,1.113565381802705,6.236616406803465,5.466570295851218
835,5.128557827151328,1.0416559079258363,6.170213735077164,5.11356166222325
840,5.134258131873446,1.1036959095539047,6.237954041427351,5.41812036672027
845,5.141203313852478,1.1229218940359347,6.264125207888413,5.5125020684105825
850,5.149271588355933,1.092068517586619,6.241340105942552,5.361040686815273
855,5.156070019890137,0.9744333363932564,6.130503356283394,4.7835613598109745
860,5.161014968304008,0.9372848726229911,6.098299840926999,4.601196954539782
865,5.16702725283457,1.0425848761662886,6.209612129000859,5.118122032249144
870,5.172554689767485,1.0365613878070046,6.209116077574489,5.0885523068604455
875,5.178429133349145,1.0569135139330155,6.23534264728216,5.188462316596704
880,5.1851065221281445,1.1138448460381414,6.298951368166286,5.467942205317115
885,5.19049753758479,1.077822596973289,6.268320134558079,5.291106466755547
890,5.196450305328855,1.075003098059352,6.2714534033882074,5.277265349508204
895,5.20066913641258,0.9843456266249195,6.1850147630375,4.8322214854127115
900,5.204053636590199,0.9451625188399041,6.1492161554301035,4.639868870454488
905,5.20673631940768,0.9632000484575287,6.169936367865208,4.728416364144188
910,5.208230010439882,1.0108159436457496,6.219045954085631,4.962166121904178
915,5.209672157170275,1.0048765226105842,6.21454867978086,4.93300908888576
920,5.213024271268042,0.9836635229795483,6.19668779424759,4.8288729909395425
925,5.21610201839499,1.0861593314438422,6.302261349838832,5.332032078996966
930,5.218315621264627,1.2099324927109292,6.428248113975556,5.939643179218954
935,5.219583818184094,1.2075559060296437,6.427139724213737,5.927976349080611
940,5.217949424532285,1.0833303260414449,6.3012797505737295,5.3181442937332815
945,5.215612997850289,1.1264528321140774,6.342065829964366,5.529835690243561
950,5.211950130237763,1.1558523809916033,6.367802511229366,5.674160130668545
955,5.208095503210771,1.1219491885718296,6.3300446917826,5.50772698929661
960,5.202859729137751,1.0842819270282533,6.287141656166004,5.322815769493034
965,5.1977866992317985,1.1256661968238828,6.323452896055681,5.525974042619346
970,5.193458023741824,1.1023786046238748,6.295836628365699,5.411653624741077
975,5.189803247963894,1.0925436260581707,6.282346874022065,5.363373027511504
980,5.185551890321885,0.9842599866636897,6.169811876985575,4.831801072856926
985,5.1817504577130435,0.9503946437652967,6.13214510147834,4.665553737431075
990,5.176372006552822,1.0151183701912119,6.191490376744034,4.983287034549138
995,5.170995427604512,1.0506976247531834,6.221693052357695,5.1579480821314005
1000,5.165405119863938,1.050688007278516,6.216093127142454,5.157900869276011
1005,5.159825198642732,1.060057078387554,6.219882277030286,5.203894294234564
1010,5.153354796633941,1.013880006319827,6.167234802953768,4.977207819744697
1015,5.147059070201735,1.0869495746807607,6.234008644882495,5.335911438283838
1020,5.139866257223749,1.051348900871202,6.19121515809495,5.161145242117996
1025,5.1316287387256985,1.0792874916554727,6.210916230381171,5.2982977371443685
1030,5.122191149887414,1.1279106287684697,6.250101778655884,5.536992115917814
1035,5.111819074507071,1.1410510761057922,6.252870150612863,5.601499490394665
1040,5.101949625117135,1.143670673357332,6.245620298474467,5.614359276408468
1045,5.092054965262703,1.0582909817915662,6.150345947054269,5.195224402597306
1050,5.083237013818705,1.17582743932476,6.2590644531434645,5.772219088253199
1055,5.073385201989246,1.2378174330132832,6.3112026350025285,6.076532300279508
1060,5.0640485887192686,1.259797172703874,6.323845761423143,6.184432378772083
1065,5.055477754277387,1.2663692071724029,6.32184696144979,6.216694955353631
1070,5.046525787613464,1.3094274967801205,6.355953284393585,6.428071108749006
1075,5.037771927043963,1.2725065230278243,6.310278450071787,6.246823467877243
1080,5.02927992559093,1.2447952409053182,6.274075166496248,6.110786846960013
1085,5.021052005718387,1.2376787206819497,6.258730726400336,6.075851351749204
1090,5.01395956838452,1.2030974696544385,6.217057038038958,5.906089573276586
1095,5.007251940707106,1.1933300405777512,6.2005819812848575,5.858140581210207
1100,5.001042088071751,1.134824472690428,6.135866560762179,5.570932658998224
1105,4.994382806662137,1.182861460276555,6.1772442669386916,5.806749588773275
1110,4.9884381233759925,1.2542305441311734,6.242668667507166,6.157105410009549
1115,4.982710913964426,1.2808966850807095,6.263607599045136,6.288011359854838
1120,4.978599551179942,1.1531319965424538,6.131731547722396,5.6608055732568
1125,4.974506309180559,1.182410362527519,6.156916671708078,5.804535118392188
1130,4.971972885354846,1.3391718710458007,6.3111447564006475,6.574088321107227
1135,4.969866751089553,1.141461613458607,6.11132836454816,5.60351484695559
1140,4.967476815985813,1.2010908574988597,6.168567673484672,5.8962389739456125
1145,4.963241895280401,1.290560340697063,6.253802235977464,6.335450920750827
1150,4.958955856557956,1.345442970504912,6.304398827062868,6.60487358669263
1155,4.9553245869932265,1.3230475052236692,6.2783720922168955,6.4949326822169375
1160,4.95180811563803,1.3639428977344623,6.315751013372492,6.695691022580186
1165,4.9476634473029515,1.368225609168371,6.315889056471322,6.716715152364471
1170,4.943653594547439,1.3408778644370107,6.28453145898445,6.582463161911106
1175,4.939802817364716,1.2542952471044968,6.1940980644692125,6.157423041428236
1180,4.936436114544226,1.1043795102623586,6.0408156248065845,5.421476210380754
1185,4.9326298052738355,0.9961249787179703,5.928754783991806,4.890047148196878
1190,4.929146982526192,1.0356420846582948,5.964789067184487,5.084039383445491
1195,4.924554528024144,1.1436007661260776,6.0681552941502215,5.6140160969238275
1200,4.92143397223198,1.2368683500219064,6.158302322253887,6.071873185535336
1205,4.917340369387537,1.2692223676290584,6.186562737016596,6.23070131946707
1210,4.915095748581648,1.2563012355684384,6.171396984150086,6.167270579013368
1215,4.914587235245601,1.1484252617156767,6.063012496961278,5.637699882998311
1220,4.914108881999823,1.2181109773984657,6.132219859398289,5.979791932214117
1225,4.914183798186391,1.1914670501155993,6.10565084830199,5.848995030811211
1230,4.916144819739948,1.2243093106989265,6.140454130438874,6.010219983640456
1235,4.917591236018552,1.3684242859239073,6.28601552194246,6.717690470444612
1240,4.9197699666162045,1.4518968601301854,6.37166682674639,7.12746317183335
1245,4.9215186862259825,1.3560773340998138,6.277596020325796,6.6570784209063705
1250,4.921451144092747,1.2676094270602607,6.189060571153007,6.222783281472671
1255,4.922910711343811,1.2469946145557205,6.169905325899531,6.12158372594282
1260,4.92451251387346,1.2383643883632873,6.162876902236747,6.0792173423240525
1265,4.927022047245187,1.2523318891483546,6.179353936393542,6.1477847799857015
1270,4.930234878366475,1.3278975647753917,6.258132443141867,6.518741963568369
1275,4.933741513329696,1.307051175552559,6.240792688882254,6.416405581741548
1280,4.937953220368361,1.2851645835012815,6.223117803869643,6.308962771521247
1285,4.942618654768571,1.3079128356460856,6.250531490414657,6.420635531369444
