#"Step","Potential Energy (kJ/mole)","Kinetic Energy (kJ/mole)","Total Energy (kJ/mole)","Temperature (K)"
5,4.340497736354203,0.10104865912019888,4.441546395474402,0.49605493077365054
10,4.34039653093767,0.2371881566634954,4.577584687601165,1.1643732401642621
15,4.340252513375973,0.3040198408665585,4.644272354242532,1.4924546493534918
20,4.340533687415657,0.33519294745539246,4.675726634871049,1.6454856085523615
25,4.340716614378853,0.37976546975682446,4.720482084135678,1.8642952360838183
30,4.3403242967825415,0.5321203038366905,4.872444600619232,2.6122157659606153
35,4.340943732360027,0.5561707055132145,4.897114437873242,2.7302808688783617
40,4.341668806229221,0.7620150387457676,5.103683844974988,3.7407850889329883
45,4.34241067579459,0.8205289704355893,5.162939646230179,4.028034069636053
50,4.343245706934715,0.9369598329601633,5.280205539894878,4.599601312115166
55,4.345005539644647,0.964408322780862,5.309413862425509,4.734347867254029
60,4.346495065694771,1.0801952115906932,5.426690277285465,5.302753797754654
65,4.348209656192253,1.0640632263589276,5.41227288255118,5.223560754649885
70,4.350625590093628,1.1499351602854393,5.500560750379067,5.645112080616965
75,4.352911756875935,1.262787780867165,5.6156995377431,6.19911348328479
80,4.355920962504541,1.5185586961682875,5.874479658672829,7.4547107845086495
85,4.359038181192578,1.6336570690007646,5.992695250193343,8.01973674195019
90,4.363101991092304,1.6314608516961544,5.994562842788458,8.008955357689501
95,4.367139895134663,1.537221077912575,5.904360973047238,7.546325720964382
100,4.371492778553172,1.512331313810566,5.883824092363739,7.424140129229731
105,4.376157044678956,1.501990893438008,5.878147938116964,7.373378282840673
110,4.381039458121975,1.5394363350097382,5.920475793131714,7.5572005728975675
115,4.385984685814455,1.4231852987723714,5.809169984586826,6.986516110231947
120,4.391410299007695,1.6174092882219575,6.008819587229652,7.939975250411057
125,4.397996886764661,1.7758606784210547,6.173857565185715,8.71782420041746
130,4.404557427348096,1.8016366405156492,6.206194067863745,8.84436020004165
135,4.412251138307629,1.8839829968088189,6.296234135116448,9.248604218973965
140,4.420236336057545,1.975165246464138,6.395401582521684,9.696224256037016
145,4.429416743126239,2.092992918803659,6.522409661929897,10.274648535532656
150,4.439226478286185,2.072597314740836,6.5118237930270215,10.174525089565542
155,4.4492644604152085,2.0804377777408547,6.529702238156063,10.213014470469462
160,4.460816383318196,2.04701412411701,6.507830507435206,10.048935418565797
165,4.472554040300615,2.1947436259103235,6.6672976662109384,10.774149868943987
170,4.4849260598722775,1.9505834988986552,6.435509558770933,9.575550739010074
175,4.495727939836154,1.8352362584478052,6.33096419828396,9.009303073034461
180,4.506983194796685,1.7845422421925312,6.291525436989216,8.760442603800174
185,4.518412934304481,1.8793796384405714,6.397792572745053,9.226006010976262
190,4.529723519743383,1.8886654668601988,6.418388986603582,9.271590791753956
195,4.540881353540596,2.1243272507722564,6.665208604312852,10.4284709613902
200,4.553421059531128,2.2874580719292403,6.840879131460368,11.22929156505421
205,4.567225344606669,2.4816087224994687,7.048834067106138,12.182390679548272
210,4.581960772676475,2.186554872603655,6.7685156452801305,10.733950706579744
215,4.595987523673625,2.234503887554614,6.830491411228239,10.969335772539596
220,4.608097988092917,2.1112602967056566,6.719358284798574,10.3643243705164
225,4.620395308247409,2.057810374813773,6.678205683061182,10.101934967878245
230,4.632603467937821,2.1322488674922555,6.764852335430077,10.46735873157803
235,4.646195239394857,2.1665022751238965,6.812697514518754,10.635511103904548
240,4.658791425982643,1.9959135442968812,6.654704970279524,9.798079100373442
245,4.66995329953037,2.144528217863288,6.8144815173936575,10.527638920857951
250,4.680525505378505,1.9763307673867887,6.656856272765293,9.701945879714506
255,4.689786315084893,1.9843830416971904,6.674169356782084,9.741475057146394
260,4.69893187979983,1.8950892441512333,6.594021123951063,9.303125563488225
265,4.708217958434219,1.951659684710186,6.659877643144405,9.580833810382684
270,4.716068337795706,1.8530256131056193,6.569093950901325,9.096632258499385
275,4.724225682497435,2.004426251081268,6.728651933578703,9.839868573003676
280,4.733605243754071,2.0694296666496323,6.803034910403703,10.158974883671883
285,4.7442047393236555,2.3733480780763676,7.117552817400023,11.650931608815512
290,4.756570363842373,2.3792509345940656,7.135821298436438,11.67990914406188
295,4.769911299438372,2.3496529516522937,7.119564251090666,11.53461057694526
300,4.783485382911578,2.2459402571667844,7.029425640078362,11.025477710351149
305,4.79724937672903,2.6188239427597715,7.4160733194888016,12.855989786948104
310,4.810232624454777,2.716515941864243,7.52674856631902,13.335566639078952
315,4.823536629195452,2.7636820726851394,7.587218701880591,13.567108472121879
320,4.837384355873486,2.6806464826646654,7.518030838538152,13.159480956645803
325,4.850546391719462,2.49912521635778,7.349671608077242,12.26838037227587
330,4.8647217138982715,2.5652986216637013,7.430020335561973,12.593230244346303
335,4.880640034898733,2.7204670564913096,7.601107091390043,13.35496293696032
340,4.896780150636204,2.6582026316998295,7.554982782336033,13.049302523467265
345,4.910969051298389,2.575767594688089,7.486736645986478,12.644623164688834
350,4.926036827903858,2.579031577232985,7.505068405136843,12.660646283149307
355,4.941497513198965,2.361449280194129,7.302946793393094,11.59251957830314
360,4.956461218437964,2.383287707975077,7.339748926413041,11.699725946753784
365,4.973376241005289,2.7667492935120674,7.740125534517356,13.58216567355549
370,4.990818816106128,2.6861771264516547,7.676995942557783,13.186631273579998
375,5.00628121922636,2.54437739141642,7.55065861064278,12.490526462699188
380,5.021604440186737,2.545356821422214,7.5669612616089506,12.495334553058349
385,5.0388728516345065,2.6190869196795594,7.657959771314066,12.857280759029042
390,5.055459504216148,2.7011066129888253,7.756566117204973,13.25992116654011
395,5.069880724034616,2.737199764092957,7.807080488127573,13.437104968168448
400,5.086191161765773,2.6764725377468506,7.762663699512624,13.138990769291642
405,5.103258250978613,2.629031653470287,7.7322899044489,12.906100152329984
410,5.121828142032409,2.6855727614330305,7.807400903465439,13.183664403459344
415,5.141112964792601,2.825135262917106,7.966248227709707,13.868786478458178
420,5.158015798990308,2.742573006609934,7.9005888056002425,13.463482591266034
425,5.175707003660611,3.108127876566969,8.28383488022758,15.25801699963267
430,5.193033989248271,2.9346172970336846,8.127651286281955,14.406241436569562
435,5.210475708802963,2.8766189748852184,8.087094683688182,14.12152361914536
440,5.225056236546948,2.70476558669314,7.929821823240088,13.27788332421147
445,5.238003169647581,2.39114492319885,7.629148092846432,11.738297565495069
450,5.2527930602277575,2.5858052476829547,7.838598307910712,12.693898704857805
455,5.269058885587901,2.600048482030421,7.869107367618322,12.763819737850643
460,5.285585194939777,2.443277673452784,7.728862868392561,11.994220880494167
465,5.3016808465458425,2.2774194075054983,7.57910025405134,11.180011059710187
470,5.318961784208748,2.423120892836709,7.742082677045458,11.895269835520548
475,5.335580049743013,2.4725162980124256,7.808096347755438,12.137755332194283
480,5.351592053196912,2.5213569349897926,7.872948988186705,12.377517433004842
485,5.366483552466724,2.510081772318589,7.876565324785313,12.322166871334623
490,5.37973435597978,2.5416904280873833,7.921424784067163,12.477335971902164
495,5.393618292680221,2.5720456507595992,7.965663943439821,12.626351881785473
500,5.406027396403286,2.3987271836377455,7.804754580041031,11.775519411978454
505,5.416268216492645,2.1758021544791073,7.5920703709717525,10.681164861707163
510,5.42586936605863,2.2138438961469804,7.6397132622056105,10.867914430616521
515,5.435117127042903,2.1123651781780923,7.547482305220996,10.369748310894176
520,5.445332904355083,2.1899413211595644,7.635274225514648,10.750575019248473
525,5.455613656114552,2.1192891458391236,7.574902801953675,10.403738552117328
530,5.465320038072219,2.0301195202094733,7.495439558281692,9.965998627075745
535,5.477815256675014,2.188568749013927,7.666384005688942,10.743836966644766
540,5.489663532325416,2.1599162691687335,7.649579801494149,10.603179940318528
545,5.501867121121761,2.328025507873663,7.829892628995424,11.428439943709463
550,5.513764412521695,2.380538979510071,7.894303392031766,11.686232246586993
555,5.52521023573814,2.329748897802478,7.854959133540618,11.436900185332437
560,5.5343988542158495,2.1972250728576443,7.731623927073494,10.786331465457875
565,5.54544628050313,2.332014193301977,7.877460473805107,11.448020679280301
570,5.558341078148884,2.3655646874976415,7.923905765646525,11.612722400416999
575,5.572901308171045,2.436085242230739,8.008986550401783,11.958912732884787
580,5.586914116354292,2.3963778232546216,7.983291939608913,11.763986237640864
585,5.602901201182056,2.5705988105704853,8.173500011752541,12.619249242165113
590,5.6209924683237285,2.488525931875528,8.109518400199256,12.216347743878105
595,5.639240930615527,2.4806377361397236,8.11987866675525,12.177624039637767
600,5.657050398951327,2.4233241099212988,8.080374508872627,11.896267442393373
605,5.675668363935448,2.3362251512286676,8.011893515164115,11.468692566082188
610,5.690471220485869,2.0846681441063653,7.775139364592235,10.233781634654138
615,5.7059390945481505,2.0850757536376774,7.791014848185828,10.235782618334655
620,5.72073587027881,1.9873442099598813,7.708080080238691,9.756011639129248
625,5.73258785493067,1.8870236989833697,7.61961155391404,9.263531238489442
630,5.744836008561392,1.9301564437475418,7.674992452308934,9.47527289745216
635,5.756613316141017,1.8916264999155654,7.6482398160565825,9.286126709994603
640,5.768452499083893,1.9125725108982625,7.6810250099821555,9.388952142004014
645,5.780050754327452,1.9762634685356022,7.756314222863054,9.70161550494994
650,5.793923267029237,2.2417288457126796,8.035652112741918,11.004803597151486
655,5.809564654188841,2.3209919570554374,8.130556611244279,11.393911751107941
660,5.823583432113111,2.3254503527492956,8.149033784862407,11.41579832720439
665,5.836221977872734,2.4125036697892495,8.248725647661983,11.8431491454523
670,5.848490426487788,2.3990560500991602,8.247546476586948,11.77713384042482
675,5.8629561010112,2.5067580833759164,8.369714184387117,12.305850649994076
680,5.879033708866751,2.5553728981944257,8.434406607061177,12.544504174042164
685,5.8949406933902555,2.7350074238917608,8.629948117282016,13.426342616879422
690,5.912314474838363,2.707349592441621,8.619664067279984,13.290568389048962
695,5.9300467658260185,2.9982104771767637,8.928257243002783,14.718424802961662
700,5.94716541764018,3.0878442441696983,9.035009661809879,15.158443230398408
705,5.961798239170113,2.988549266128316,8.95034750529843,14.670997242620397
710,5.974732715156834,2.8251920978179257,8.799924812974758,13.86906548495898
715,5.987138183290053,2.7030030061858445,8.690141189475899,13.269230693299372
720,6.002736912784664,2.6287774820532492,8.631514394837914,12.904852407077536
725,6.017564124241635,2.4009900366039227,8.418554160845558,11.786627915359512
730,6.030511688065333,2.4106963427410495,8.441208030806383,11.834276850643185
735,6.040664829261046,2.2685729378507844,8.309237767111831,11.136583121819983
740,6.052775620045025,2.23222724866378,8.285002868708805,10.958159593090784
745,6.063613831724245,1.9761855318327826,8.039799363557028,9.701232908228137
750,6.07798089520563,2.000982679946432,8.078963575152063,9.822963841602212
755,6.095216092638008,1.9438519733518775,8.039068065989886,9.542505209577211
760,6.111014642024066,1.9292222863534711,8.040236928377537,9.47068705350844
765,6.124931190824407,2.070061238800087,8.194992429624495,10.16207531550443
770,6.135824410230262,2.001889945565061,8.137714355795323,9.827417671940594
775,6.142636907847477,1.9594008643911225,8.1020377722386,9.618835802533471
780,6.149783511095997,2.002262630725606,8.152046141821604,9.829247209443853
785,6.156223704823665,2.1358967486472586,8.292120453470924,10.485266435149466
790,6.166106723640893,2.140488507878705,8.306595231519598,10.507807702173848
795,6.177120108307475,2.2305601222317213,8.407680230539196,10.949975552906121
800,6.188758974523196,2.465242214066849,8.654001188590046,12.102046345657683
805,6.196991703079628,2.2814852703002018,8.47847697337983,11.199970664367214
810,6.2085358174087055,2.364297274720145,8.57283309212885,11.606500582501978
815,6.215279889030906,2.0970306427905894,8.312310531821495,10.29447000481546
820,6.219044858045778,2.021044098188149,8.240088956233926,9.921446746014418
825,6.22134681139957,1.8955360250002449,8.116882836399816,9.305318841905347
830,6.222884581030251,1.9863247162051039,8.209209297235354,9.751006873025933
835,6.226843874151855,1.8536716172015733,8.080515491353427,9.099803537761161
840,6.2323137901378125,1.9432259605874889,8.175539750725301,9.539432069159457
845,6.239041948309297,1.8751181280806035,8.1141600763899,9.205085958745874
850,6.24553780705677,2.0883721166675207,8.333909923724292,10.251964694859081
855,6.251365877145414,2.267331049225187,8.518696926370602,11.13048660375074
860,6.256663071563344,2.3652696537831965,8.621932725346541,11.611274059290364
865,6.257614734031367,2.4625676752862535,8.72018240931762,12.088916847837414
870,6.2599398379957565,2.419402085542557,8.679341923538313,11.877013950574396
875,6.259987073580583,2.4921628569613015,8.752149930541885,12.23420166333988
880,6.260076188497032,2.845513984643768,9.1055901731408,13.968827047857026
885,6.261876180961084,2.8535059433275696,9.115382124288654,14.008060131661964
890,6.261724908372684,3.020897810269207,9.28262271864189,14.829798506923668
895,6.260081956866445,2.9251027657367006,9.185184722603147,14.35953393738093
900,6.258329058872885,2.914544937274206,9.172873996147091,14.307704819481868
905,6.255913362847967,2.7090223243913254,8.964935687239294,13.298779947111562
910,6.2559843266435715,2.6817051052466434,8.937689431890215,13.164677808896895
915,6.257559409103958,2.788078454521605,9.045637863625563,13.686872015828282
920,6.261680788398212,2.633234531266045,8.894915319664257,12.92673237320433
925,6.266132991208358,2.6097194279167075,8.875852419125065,12.81129508719131
930,6.270590376301248,2.8660071028473117,9.13659747914856,14.069429197557035
935,6.276397392089755,2.804845906639294,9.08124329872905,13.769184610294252
940,6.282752250316261,2.7241264661220668,9.006878716438328,13.372927234625056
945,6.29293532003305,2.565897189242006,8.858832509275056,12.596168654427196
950,6.302908042045916,2.5338186361804245,8.83672667822634,12.438692795204231
955,6.3126929520397725,2.6930766574613343,9.005769609501106,13.22050155357358
960,6.318277330043642,2.8350293294596893,9.153306659503333,13.917357142696416
965,6.3249806259244075,2.9816872719999794,9.306667897924386,14.637311233801096
970,6.330071989132808,2.9698942434633926,9.299966232596201,14.579418432399649
975,6.331596552345977,2.7547093026232092,9.086305854969186,13.523060516704437
980,6.335216118884625,2.6250533050668903,8.960269423951516,12.886570161937009
985,6.341711811940697,2.5536613253322784,8.895373137272976,12.536101943225457
990,6.35146476587516,2.6613823247512114,9.012847090626371,13.064911858912364
995,6.361055158051373,2.7132767543095158,9.07433191236089,13.31966524095835
1000,6.369619477892519,2.9315609487873826,9.3011804266799,14.39123760939422
1005,6.379528207277312,2.605310655188307,8.984838862465619,12.789652113700864
1010,6.389692900022392,2.429684797797501,8.819377697819892,11.927492503780375
1015,6.39697449351945,2.4521985854574258,8.849173078976875,12.038014261083577
1020,6.403659264482574,2.406402902957858,8.810062167440432,11.813200054642374
1025,6.4090179868345,2.472948010768516,8.881965997603016,12.139874640290019
1030,6.412331846836655,2.411000784879946,8.823332631716601,11.835771378383084
1035,6.415174868761027,2.376691046102323,8.791865914863351,11.667342472523474
1040,6.419735737106232,2.5906659577606646,9.010401694866896,12.717760270385766
1045,6.4264998072994155,2.450015527200331,8.876515334499747,12.027297475506938
1050,6.435945593159918,2.280290610910654,8.716236204070572,11.19410599791899
1055,6.445672554715279,2.4684453084025297,8.91411786311781,12.117770559643121
1060,6.45684813130282,2.59440820499721,9.05125633630003,12.736131223647542
1065,6.464431812419733,2.6934048392555314,9.157836651675265,13.222112620940718
1070,6.471432475827115,2.6637659568404497,9.135198432667565,13.07661327545081
1075,6.476868070054014,2.5980047337827457,9.07487280383676,12.753786834847809
1080,6.4829890186840124,2.7140225310110266,9.19701154969504,13.323326310914762
1085,6.4911103630093585,2.8072518721869084,9.298362235196267,13.780995663340942
1090,6.499563353784305,2.962798343584699,9.462361697369005,14.544584163902183
1095,6.509975580976238,3.0838608320662426,9.59383641304248,15.138888381947899
1100,6.519732537402771,2.946943575273437,9.466676112676208,14.46675199803722
1105,6.527864832221705,2.9866028502561264,9.514467682477832,14.66144215105221
1110,6.530451214450815,3.1993920417959885,9.729843256246802,15.706039165972793
1115,6.529245195652643,3.2243564911930607,9.753601686845704,15.828591393041304
1120,6.524716571996753,3.402054870807218,9.926771442803972,16.70092515942248
1125,6.51780428084408,3.277410526602225,9.795214807446305,16.089037361263905
1130,6.505501917830291,3.2486469925738084,9.7541489104041,15.9478351621897
1135,6.494555951767477,3.316691050132632,9.81124700190011,16.28186819692547
1140,6.481391761538987,3.2018528662381547,9.683244627777142,15.718119525167396
1145,6.4672802495192325,3.3065301295047584,9.773810379023992,16.23198752732984
1150,6.4511621422557655,3.0771898942828315,9.528352036538596,15.106140282080398
1155,6.433448797180171,3.1450009376351944,9.578449734815365,15.439029433789303
1160,6.418150662584199,3.153943925272437,9.572094587856636,15.482931185202204
1165,6.406210391773253,3.2403847080585706,9.646595099831824,15.907275029982866
1170,6.391231083151588,3.375199867251272,9.76643095040286,16.569092069841105
1175,6.374149195596437,3.067183189238762,9.4413323848352,15.057016667565101
1180,6.35742410743061,2.8990667905385674,9.256490897969178,14.231721515256934
1185,6.34142421627283,2.898979789050797,9.240404005323626,14.231294418872194
1190,6.3254552982560845,3.073556105682089,9.399011403938173,15.088301759842874
1195,6.312686962998556,3.1180870857880327,9.430774048786589,15.306907453832943
1200,6.301954448710897,3.3510994413553585,9.653053890066255,16.450781394533756
1205,6.289455967534352,3.4736322478047494,9.763088215339103,17.0523035062567
1210,6.279269810037945,3.389969152754677,9.669238962792623,16.641595524728643
1215,6.268160046549315,3.3080748765873476,9.576234923136662,16.239570798733816
1220,6.259287389881231,3.361979677030828,9.62126706691206,16.5041932319771
1225,6.251702545979819,3.1570936660816216,9.40879621206144,15.498393482996741
1230,6.24527756729462,3.333869260756594,9.579146828051215,16.366197233610148
1235,6.242614828919353,3.5304453592954714,9.773060188214824,17.331203041717554
1240,6.241418820605593,3.8380185277563994,10.079437348361992,18.841101224604174
1245,6.241878409408829,3.6798985295708277,9.921776938979658,18.064879101155977
1250,6.2425893345165955,3.5128146859849583,9.755404020501555,17.244652834078117
1255,6.246099468087353,3.653892870435975,9.899992338523328,17.93721550270568
1260,6.2457493335535865,3.515020067587187,9.760769401140774,17.25547920651639
1265,6.2438245298947646,3.4712018582086346,9.7150263881034,17.040372553848712
1270,6.2420029769890455,3.8850349581107704,10.127037935099816,19.071908167593083
1275,6.23949637740435,3.8559876121091525,10.095483989513504,18.929312715704395
1280,6.239111882311568,4.12210197549488,10.361213857806447,20.235686726567387
1285,6.239071308822167,3.991072411741804,10.230143720563971,19.59245343932982
