#"Step","Potential Energy (kJ/mole)","Kinetic Energy (kJ/mole)","Total Energy (kJ/mole)","Temperature (K)"
5,4.34073063819226,0.03910509908985969,4.37983573728212,0.19196966482101022
10,4.340466727049858,0.08431120716961844,4.424777934219477,0.4138896092249865
15,4.3409108610467,0.10820836901930779,4.449119230066008,0.5312024471215637
20,4.34079208593169,0.16339296855470672,4.504185054486396,0.8021075035631485
25,4.34113377837798,0.15722158995669233,4.498355368334672,0.7718117746552122
30,4.341209611802376,0.19386250574209407,4.53507211754447,0.951684591391851
35,4.341363869758641,0.18390302355854501,4.525266893317187,0.902792797199658
40,4.342163559280833,0.21533773941370654,4.55750129869454,1.0571080145730327
45,4.342484841231355,0.20362980728202948,4.546114648513384,0.9996329573714003
50,4.343066053262769,0.24242195889023388,4.585488012153003,1.1900663411303962
55,4.343590622922362,0.23264387752336213,4.576234500445724,1.1420650562269223
60,4.344226413237704,0.2871669281861996,4.631393341423904,1.4097225230118102
65,4.345488966138892,0.3011720651508225,4.646661031289715,1.4784747193096113
70,4.3457636622961076,0.3599002684599992,4.705663930756106,1.766775574369361
75,4.347009024602057,0.44697515347154476,4.793984178073602,2.1942322712973827
80,4.347629343430471,0.46889724241601083,4.816526585846482,2.3018493382475285
85,4.348976142733366,0.4085172366402614,4.757493379373628,2.005439669420811
90,4.349738055113474,0.41367028032728553,4.76340833544076,2.0307363210705844
95,4.3509811929832996,0.3928808145451175,4.743862007528417,1.928679380392852
100,4.3517973302013875,0.41767805579277056,4.769475385994158,2.050410770968259
105,4.3530911869895235,0.4539547775081378,4.807045964497661,2.2284957335584683
110,4.354124947636543,0.39010893040627864,4.744233878042822,1.9150720074046692
115,4.355425941708252,0.42945300040277834,4.78487894211103,2.10821479711009
120,4.356744745608713,0.4933918893927646,4.850136635001478,2.4220952723961964
125,4.358063489736783,0.5848217942473881,4.942885283984172,2.870931066143367
130,4.359686764879093,0.5439710930959837,4.903657857975077,2.670392118787218
135,4.361498045550774,0.5797625884347188,4.941260633985493,2.8460950711779307
140,4.363742603638027,0.588923162894623,4.95266576653265,2.891064971512277
145,4.365477461678446,0.5958026475358386,4.961280109214284,2.924836842481858
150,4.366933065662575,0.6203723021097403,4.987305367772316,3.045450994167846
155,4.36896551170932,0.6352141960597603,5.0041797077690795,3.118310888995043
160,4.370693489531869,0.6892365628104599,5.059930052342329,3.383510463458178
165,4.373065494225686,0.6543735552015106,5.027439049427196,3.21236552223291
170,4.375158290874205,0.6606415209248417,5.035799811799047,3.243135404090324
175,4.376886968522555,0.6909512205861306,5.067838189108686,3.3919278383310005
180,4.378610537189054,0.6452259548160082,5.023836492005063,3.1674593125366703
185,4.380693818441787,0.6323272904434387,5.013021108885226,3.1041388675340658
190,4.382866832273669,0.7205123909189571,5.103379223192626,3.5370456897771576
195,4.385931456321052,0.8435878513680836,5.229519307689136,4.1412317279155175
200,4.388887924452982,0.8395108146391173,5.2283987390921,4.121217269634153
205,4.391914002822063,0.7381196210437405,5.1300336238658035,3.6234808131791985
210,4.395516079831528,0.7432693104909939,5.138785390322521,3.648760998631481
215,4.397937453670462,0.6958111106251107,5.093748564295573,3.4157853782315173
220,4.40105875543966,0.7307005036798284,5.131759259119488,3.5870598474543667
225,4.403433126439178,0.7642500586926725,5.1676831851318505,3.7517569580769505
230,4.406189253619148,0.7217172865022937,5.127906540121442,3.5429606064161856
235,4.4087867479894856,0.775813370175231,5.184600118164717,3.808522062403289
240,4.411856708527782,0.7839590305826176,5.195815739110399,3.8485096787128272
245,4.4148152574258095,0.7487229705106949,5.163538227936504,3.675533396871004
250,4.418316249078531,0.7820476683461975,5.2003639174247285,3.839126667892833
255,4.421542889340615,0.815569963145881,5.237112852486496,4.003689956223562
260,4.425718012599873,0.8340883923802797,5.259806404980153,4.094598219746182
265,4.429331778732774,0.7351301476455969,5.164461926378371,3.6088052793079197
270,4.432794556481109,0.7436802290965274,5.176474785577636,3.650778226788651
275,4.4365662007572935,0.7119735337913364,5.1485397345486295,3.495127843284118
280,4.440403607224118,0.7272765464064483,5.167680153630567,3.5702514018697684
285,4.4437998187155205,0.5943235243044849,5.038123343020006,2.9175757231506054
290,4.447006703614516,0.6108248436725748,5.0578315472870905,2.998581853346504
295,4.4503025976153685,0.6420269716210341,5.092329569236402,3.151755280428324
300,4.452616635895447,0.7027776543934906,5.155394290288938,3.4499846285416536
305,4.455363807395823,0.7003032825328038,5.155667089928627,3.4378377641225897
310,4.459004141127145,0.7748289273903071,5.233833068517452,3.803689363960995
315,4.461711306973002,0.7465623261430897,5.208273633116091,3.664926642644568
320,4.465037283870158,0.6919408821800543,5.156978166050212,3.396786156271462
325,4.467836280288985,0.6372390776860309,5.105075357975016,3.1282511744346526
330,4.470146817666546,0.6517071945355779,5.121854012202124,3.1992761713491586
335,4.472373280280265,0.5713620586801053,5.04373533896037,2.804856283427863
340,4.474771445789592,0.5014068138832741,4.976178259672866,2.461441096951537
345,4.477617205155714,0.5250615890647754,5.00267879422049,2.577564041751507
350,4.479912307274766,0.4917679132315357,4.971680220506302,2.4141230599071792
355,4.4831892946978416,0.4874749704303674,4.970664265128209,2.393048703625859
360,4.485094032636569,0.5488694502894255,5.033963482925994,2.694438496637784
365,4.487589661453942,0.6113152461410684,5.098904907595011,3.000989273342749
370,4.490625909384073,0.6873935902193617,5.178019499603434,3.3744631821874047
375,4.493042215648751,0.6371399278608284,5.13018214350958,3.127764441012306
380,4.495283956337511,0.5956987992272406,5.0909827555647515,2.9243270438761066
385,4.497644701756103,0.5684180215433529,5.066062723299456,2.7904037993396815
390,4.499586224557731,0.5483404292982631,5.047926653855995,2.691841495614379
395,4.501615014464925,0.5259841610524221,5.027599175517348,2.5820930121252887
400,4.504111794106745,0.4805397406191584,4.984651534725903,2.3590031757202743
405,4.505817279830658,0.5232243249154314,5.029041604746089,2.568544783620317
410,4.508120364366907,0.4984282805943599,5.006548644961267,2.4468192688411623
415,4.5098789786282705,0.5078262337330788,5.017705212361349,2.49295447770223
420,4.511913005490279,0.4774525215620199,4.989365527052299,2.343847801576712
425,4.513864126092192,0.509221835401629,5.023085961493821,2.499805583843646
430,4.515351901223193,0.5225491818846223,5.0379010831078155,2.56523045929057
435,4.517645977506303,0.5449031609085233,5.062549138414827,2.6749677048291436
440,4.520677602599108,0.5309246238646731,5.051602226463781,2.6063460894017108
445,4.523078673927376,0.5195544465933141,5.04263312052069,2.5505290944179477
450,4.525607269459768,0.5072750498262167,5.032882319285985,2.4902486773765
455,4.52898486491527,0.5243821196383149,5.053366984553586,2.5742284788430996
460,4.532727846480027,0.515060541628224,5.047788388108251,2.5284682008269757
465,4.536171826844255,0.4553618473954692,4.991533674239724,2.2354031379874932
470,4.539155671931675,0.4934204285365403,5.032576100468215,2.4222353730478354
475,4.542887923270198,0.5515097178787105,5.094397641148909,2.707399754784404
480,4.546370817580141,0.5966012442322973,5.142972061812438,2.928757209485508
485,4.549905104317795,0.6267833244553492,5.1766884287731445,3.076923150983469
490,4.553489971096025,0.6592137362756294,5.212703707371654,3.236126309447294
495,4.557168256128938,0.6829850317316768,5.240153287860615,3.3528212604196073
500,4.560799018661159,0.6597805556514037,5.220579574312563,3.2389088653828106
505,4.564083352395351,0.6226180967534093,5.18670144914876,3.0564757570513583
510,4.566925082957497,0.5966552567513543,5.163580339708852,2.9290223607169548
515,4.569856076402563,0.5644357441684293,5.134291820570993,2.770854521350853
520,4.572926433816414,0.5699186309348735,5.142845064751287,2.797770395733045
525,4.57678674176221,0.6324626379247301,5.20924937968694,3.104803297780315
530,4.581564379357814,0.6201797669023398,5.201744146260154,3.044505825376789
535,4.587324078161278,0.6145664791478271,5.201890557309105,3.016949803429332
540,4.592808620565805,0.6200773792407422,5.212885999806547,3.04400319718926
545,4.599221798997431,0.7175817603164635,5.316803559313894,3.522659019302749
550,4.606131546265579,0.7033071567617637,5.309438703027343,3.4525839926789423
555,4.6126665431654015,0.6847447447803829,5.297411287945785,3.3614598147770587
560,4.619361593437764,0.6820409860865254,5.301402579524289,3.3481868743601573
565,4.6263979025086694,0.6664250595854249,5.292822962094094,3.2715271996359694
570,4.633218765418559,0.7463516863163885,5.379570451734947,3.6638925970118774
575,4.640352914499339,0.7354974027593989,5.375850317258738,3.610608160332166
580,4.647177184771577,0.7387339620719907,5.385911146843568,3.6264966562284124
585,4.653814070647638,0.7335399785114204,5.387354049159058,3.6009990278777644
590,4.660080482571252,0.7795703905866151,5.439650873157867,3.8269655382129724
595,4.6666514936484305,0.8503826179908209,5.517034111639251,4.174587712210724
600,4.673074838955539,0.78918185937966,5.4622566983351994,3.874148910345556
605,4.679183674643203,0.712369032340534,5.391552706983736,3.4970693733068954
610,4.685010132894131,0.7995136645295956,5.484523797423727,3.924868464004569
615,4.690473678961105,0.8183459086277527,5.5088195875888575,4.0173172666285755
620,4.696512984004124,0.8327032350389221,5.529216219043046,4.087798385536997
625,4.701269632437563,0.7398264387625191,5.441096071200082,3.6318597006647297
630,4.706945867634065,0.6833410911243296,5.390286958758395,3.354569180866168
635,4.712861737407997,0.6856668703811568,5.398528607789154,3.3659865938064804
640,4.719147990584847,0.6674379271950851,5.386585917779931,3.2764994375297465
645,4.725125491805485,0.653932686534355,5.3790581783398395,3.2102012671297713
650,4.731032637142612,0.6234559952875589,5.354488632430171,3.060589059523373
655,4.736384730375765,0.6886846554728308,5.425069385848596,3.3808011117602454
660,4.741630336086283,0.6418886267159943,5.3835189628022775,3.151076135619379
665,4.746977306450848,0.6389294901244597,5.385906796575307,3.1365495272522415
670,4.752006696788909,0.6285966528081737,5.380603349597083,3.0858249066164682
675,4.757514046545671,0.7004171655955705,5.457931212141242,3.43839682403797
680,4.762076867562635,0.6675661486147828,5.429643016177417,3.2771288854415315
685,4.7668281712182345,0.6427592012648455,5.40958737248308,3.1553498469315695
690,4.771051639415712,0.6007966569956403,5.371848296411352,2.9493527839939384
695,4.7752601551381915,0.6072039075299132,5.382464062668104,2.9808064247240686
700,4.779019419467847,0.6458309190842186,5.424850338552066,3.170429124415428
705,4.781727383823068,0.5213886350031899,5.303116018826257,2.559533253529099
710,4.7846136646748585,0.5648556305276542,5.349469295202512,2.772915772837726
715,4.787879344017191,0.5862222660384657,5.374101610055657,2.8778060800566845
720,4.791454296458367,0.6017401661374712,5.393194462595838,2.953984536321087
725,4.794519576147465,0.5891908375928331,5.383710413740298,2.892379005315858
730,4.797215210977125,0.607211013469714,5.404426224446839,2.9808413082792455
735,4.800903660860405,0.5739349838763989,5.374838644736804,2.817486953060154
740,4.804454610347487,0.6364328582282203,5.440887468575707,3.124293386762706
745,4.807936301189708,0.6303596985138425,5.43829599970355,3.0944798212198976
750,4.8106526478268785,0.5232279240828702,5.333880571909749,2.5685624521848505
755,4.813937503459286,0.533011073174457,5.346948576633743,2.6165886149031765
760,4.816532491288201,0.5101299650234046,5.326662456311605,2.5042636556338667
765,4.818331833146695,0.5118677097344819,5.330199542881177,2.512794365886344
770,4.819811801174967,0.4350856582569853,5.254897459431952,2.135865908230888
775,4.821423672044601,0.4216759908517995,5.2430996628964,2.0700369136228103
780,4.822139587930434,0.4270625920233221,5.249202179953756,2.0964801152893107
785,4.82358888540102,0.39355411869014106,5.217143004091161,1.9319846775037417
790,4.825329986425774,0.3970604028535722,5.222390389279346,1.9491972715461292
795,4.827687502115486,0.3612623420311322,5.188949844146618,1.7734620887369916
800,4.830075643952405,0.3411374647903834,5.171213108742789,1.6746676596628474
805,4.830601243598728,0.40932856988090655,5.239929813479634,2.009422561010138
810,4.8307419319826295,0.48359604616928786,5.314337978151917,2.374006793297121
815,4.830657926082861,0.5201133499731583,5.350771276056019,2.5532727901761265
820,4.829820480517112,0.5730336643583619,5.402854144875474,2.8130623125452026
825,4.829904556897635,0.5632394166800465,5.393143973577681,2.76498166608885
830,4.829336661290154,0.6277719437314083,5.4571086050215625,3.081776352112676
835,4.827991187031115,0.6014461134616147,5.429437300492729,2.9525410111814576
840,4.826734879399728,0.6583605873889282,5.485095466788657,3.2319381419286266
845,4.826185371030981,0.7480669541378792,5.57425232516886,3.6723129666422722
850,4.824649412685495,0.7424506247023198,5.567100037387815,3.6447420128699477
855,4.823339851841284,0.7528542245487405,5.576194076390025,3.695814011712349
860,4.822634223105151,0.8449008467593239,5.667535069864475,4.147677314067562
865,4.821912783117022,0.9648188409503434,5.786731624067365,4.736363129642629
870,4.821448031438143,1.0255329860808249,5.846981017518968,5.0344131119175755
875,4.822157751234563,1.0329409627863686,5.855098714020932,5.070779387371762
880,4.82301989828224,1.030864754070962,5.8538846523532015,5.060587133663895
885,4.825344683266277,1.084796495162132,5.910141178428409,5.3253418204297995
890,4.827208441348177,0.9949813858805899,5.822189827228767,4.88443317102272
895,4.8298139463574215,0.9264713667341461,5.756285313091568,4.548112698283291
900,4.832909318942406,0.9127336402542116,5.745642959196617,4.480673238746425
905,4.835553342628792,0.96063881324546,5.796192155874252,4.71584308146157
910,4.839203134741465,1.0873358089219414,5.926538943663406,5.3378074891709995
915,4.84295067729871,1.038295773011221,5.881246450309931,5.097066525058918
920,4.847546251147167,1.0173470729852563,5.8648933241324235,4.994227892348149
925,4.850215446300248,0.8792827060455666,5.729498152345815,4.316460264545103
930,4.85365178719412,0.827023718399218,5.680675505593338,4.059917241362833
935,4.8557978174813075,0.8775047217178663,5.733302539199173,4.3077320152019345
940,4.858792849452392,0.8879436286365521,5.746736478088945,4.358977338929997
945,4.860479443521407,0.864871122306372,5.725350565827779,4.245712792620898
950,4.862702865887187,0.9520405796645929,5.81474344555178,4.673633751809217
955,4.865576167337416,0.93928109500336,5.804857262340776,4.6109965497380205
960,4.8684596353121234,0.8981375803570777,5.766597215669201,4.409020160468284
965,4.871629408957435,0.9078594222775455,5.77948883123498,4.456745361998307
970,4.875364496058756,0.8801135361721879,5.755478032230944,4.320538867710491
975,4.878921001943645,0.9048091700133518,5.783730171956997,4.441771460425234
980,4.883203883544952,0.9345339589091572,5.817737842454109,4.587692526833751
985,4.887725590288148,0.9326249496548764,5.820350539943024,4.578321066967549
990,4.890699109020932,0.9790923549061487,5.869791463927081,4.806432807349301
995,4.893753422979511,0.9373947978933744,5.831148220872886,4.6017365853757095
1000,4.896166824529718,0.887330132070338,5.7834969566000565,4.3559656414039445
1005,4.899045667261521,0.8739129188354912,5.772958586097012,4.290099603790619
1010,4.901739596952562,0.9049247338757125,5.806664330828275,4.442338771503306
1015,4.904144827189989,0.9469968193477091,5.851141646537698,4.648873579862209
1020,4.906792074453608,0.9688844612183449,5.875676535671953,4.756321543719124
1025,4.90936911868234,1.0727826787695742,5.982151797451914,5.266365156010644
1030,4.911452430043214,0.9569218728380495,5.868374302881263,4.697596361192926
1035,4.915211170836507,0.9156528995208781,5.830864070357385,4.495004086538419
1040,4.919026533863688,0.9007932886957409,5.819819822559429,4.4220572183328875
1045,4.92321669381596,0.8129399058244938,5.736156599640454,3.9907788209957356
1050,4.926897097246424,0.7475589525412417,5.674456049787666,3.6698191512958154
1055,4.93059734618893,0.6225096146761273,5.5531069608650565,3.0559432109512437
1060,4.934042300073834,0.5603619998218806,5.494404299895715,2.750856225604909
1065,4.937263699940215,0.6358081057162384,5.573071805656453,3.121226433012106
1070,4.940098415230728,0.673588998306665,5.613687413537393,3.3066954755673126
1075,4.942560234146752,0.7056465891443904,5.648206823291142,3.4640684297681386
1080,4.945327527174771,0.7097931138703578,5.655120641045129,3.48442400948389
1085,4.948611281920398,0.6966484560180666,5.645259737938464,3.4198959652947485
1090,4.951324354068486,0.701120526924456,5.652444880992942,3.441849673965391
1095,4.953681331703314,0.6702791425306047,5.623960474233919,3.2904471622085842
1100,4.956288569917231,0.7223480679751049,5.678636637892336,3.546057156756912
1105,4.959998514859525,0.7970362245899083,5.757034739449434,3.912706538171237
1110,4.963513199799898,0.7782748047158735,5.741788004515771,3.820605416613956
1115,4.966957414607421,0.7715239365416199,5.738481351149041,3.787464932870792
1120,4.97023226567102,0.6837815274027537,5.654013793073773,3.356731313342799
1125,4.973856455656571,0.6246324424511644,5.598488898107735,3.066364320881439
1130,4.976647879215849,0.6440254289975417,5.620673308213391,3.1615658473788306
1135,4.9790477776112265,0.569981092011966,5.549028869623193,2.7980770215264292
1140,4.981734111046725,0.5515618156459803,5.5332959266927055,2.7076555063654886
1145,4.982833573780475,0.5282044499229451,5.51103802370342,2.592992565385612
1150,4.983907741479645,0.5767310108079389,5.560638752287584,2.8312128447052527
1155,4.983729902980759,0.6583676602749888,5.6420975632557475,3.2319728632206823
1160,4.984382057983584,0.6589046356247433,5.643286693608328,3.2346089127464137
1165,4.98566416077475,0.6531073536836719,5.638771514458422,3.2061496504762164
1170,4.988221903399398,0.6187860666188515,5.60700797001825,3.037664053267546
1175,4.99055498230686,0.662369745510982,5.652924727817842,3.251619379384042
1180,4.993608672302278,0.6754561333106283,5.669064805612906,3.315861371811758
1185,4.996783273238766,0.7806643746935994,5.777447647932365,3.8323359826620376
1190,5.000824303104773,0.748900924089973,5.749725227194746,3.6764069834303736
1195,5.004047800584122,0.8324152697093273,5.836463070293449,4.086384743605663
1200,5.007706675368101,0.8172585047661746,5.824965180134275,4.011979125064158
1205,5.01127406382155,0.7488315866503757,5.7601056504719255,3.676066601092806
1210,5.014678582166652,0.6847854163151034,5.699463998481755,3.3616594741838814
1215,5.0183324056917975,0.6464008881858642,5.664733293877662,3.1732271425754073
1220,5.022392533125385,0.6683210015507026,5.690713534676087,3.2808345112670714
1225,5.025806640879996,0.6532543637702686,5.679061004650265,3.206871333267108
1230,5.028386339735952,0.6987765705059179,5.727162910241869,3.4303430280676825
1235,5.030340669458269,0.6612254481196795,5.691566117577949,3.2460019435054344
1240,5.032944414896024,0.6580780772305533,5.691022492126577,3.2305512798141196
1245,5.035197188195806,0.6040942359408205,5.639291424136626,2.965540829531744
1250,5.03564240327572,0.6777434651408216,5.713385868416541,3.3270900436473068
1255,5.035814232422491,0.680805912038666,5.7166201444611575,3.3421238095293573
1260,5.035570607846386,0.662975980093273,5.698546587939659,3.2545954273234137
1265,5.034573063244929,0.6945947331745257,5.729167796419455,3.4098140963036014
1270,5.031989545060335,0.7228103699109469,5.754799914971282,3.548326629274186
1275,5.02878367670824,0.7729279576076225,5.801711634315863,3.7943573704228055
1280,5.023979744448845,0.84210998460751,5.866089729056355,4.13397677668715
