#"Step","Potential Energy (kJ/mole)","Kinetic Energy (kJ/mole)","Total Energy (kJ/mole)","Temperature (K)"
5,4.340473395411565,2.0204771988178423,6.360950594229408,9.91866379738015
10,4.341571521996025,3.04344527517433,7.385016797170355,14.94048558817754
15,4.342599867941357,4.61126153272006,8.953861400661417,22.63700518451912
20,4.344968443322578,4.925745517465105,9.270713960787683,24.18082904760036
25,4.348348247700009,5.922854034276968,10.271202281976976,29.075704453048022
30,4.353238879147777,6.9527826122247935,11.30602149137257,34.131695832686106
35,4.360653737598155,8.975630429554435,13.336284167152591,44.061997162043426
40,4.3691038853503565,8.801896411991587,13.171000297341944,43.209124726075196
45,4.37847506112723,7.774815097837456,12.153290158964687,38.167110763419906
50,4.390403871329985,8.64120374312885,13.031607614458835,42.420273182446905
55,4.404945223694471,8.502837991096742,12.907783214791213,41.741026034158814
60,4.42240225120541,8.07193238834826,12.49433463955367,39.625680310598895
65,4.442274774392197,10.60635508290548,15.048629857297676,52.067338470597605
70,4.466235964712306,14.589215832397581,19.05545179710989,71.61948028596052
75,4.497587857719033,16.373021473360737,20.87060933107977,80.37630686283836
80,4.532958646160206,15.75988949321219,20.292848139372396,77.36639911526586
85,4.572186174659147,17.72430764747101,22.29649382213016,87.00986514446103
90,4.617379018685535,16.700092198441624,21.317471217127157,81.98191991402288
95,4.669761986701331,19.532496886319482,24.202258873020813,95.8863925077355
100,4.730176841072965,21.03321635440437,25.763393195477335,103.25352927464694
105,4.794207872059991,22.861289637609822,27.655497509669814,112.22766880153526
110,4.86783081198246,23.4240381690361,28.29186898101856,114.9902406776012
115,4.949234753990282,24.404051191919415,29.353285945909697,119.80119310840374
120,5.03806468760897,24.999028676397756,30.037093364006726,122.72197916775868
125,5.142851725318504,27.42129056897522,32.564142294293724,134.61303211096373
130,5.260465072827143,28.648476040163064,33.908941112990206,140.63737136748367
135,5.389942568002699,28.476680575895855,33.86662314389855,139.79401542514574
140,5.530430417695412,28.328077454972256,33.858507872667666,139.0645123173923
145,5.675614219420198,28.871399217734925,34.54701343715512,141.73171682818605
150,5.828745828316425,28.994425135465743,34.82317096378217,142.33565965765726
155,5.978412257630944,26.508666656330973,32.487078913961916,130.13289753272443
160,6.1290070506798875,26.720826600190236,32.849833650870124,131.17440552679747
165,6.286372721083732,25.062574943401835,31.348947664485568,123.03393223427226
170,6.442989038240831,23.087140260282048,29.53012929852288,113.33638529485944
175,6.596257703024135,23.539581364965795,30.13583906798993,115.55745030271946
180,6.752406760585145,22.386643554131147,29.139050314716293,109.89759800067559
185,6.911013406995474,20.186171940758843,27.09718534775432,99.09532904090284
190,7.0696788898254255,20.825737724892054,27.89541661471748,102.23500217992006
195,7.226539351977627,20.903483163462262,28.13002251543989,102.61665997215296
200,7.36855052555091,19.822085539833736,27.190636065384645,97.30800344965775
205,7.5086791527461765,20.16233331136074,27.671012464106916,98.97830354290242
210,7.639695774349386,18.331566073897847,25.97126184824723,89.99093920626089
215,7.748381775816784,18.816301214396212,26.564682990212997,92.37053789324047
220,7.8487569707257085,18.92169674205856,26.77045371278427,92.88793190552725
225,7.941594679321318,17.527988563316484,25.469583242637803,86.04612103793133
230,8.033303891506586,19.448319426263055,27.48162331776964,95.47315947243789
235,8.127956232426564,20.117152499651397,28.24510873207796,98.75650778014901
240,8.23193459504268,21.565898970424694,29.797833565467375,105.86850547042181
245,8.336225794628152,21.48669181653318,29.822917611161333,105.47967201550486
250,8.435217473856182,20.236616343825457,28.671833817681637,99.3429641415464
255,8.548249474888618,23.18321557491984,31.731465049808456,113.80802572993947
260,8.669093856565063,21.891545577518805,30.560639434083868,107.46712742686549
265,8.802039737484115,20.773135649127653,29.575175386611768,101.9767749131849
270,8.92723310142282,19.813761177234515,28.740994278657332,97.26713857179749
275,9.056645526420178,20.315931398045045,29.37257692446522,99.73232728671594
280,9.201615901110289,21.846989803492974,31.04860570460326,107.24840001778963
285,9.34999055446774,21.345756699789423,30.695747254257164,104.78781167625245
290,9.523465545654044,20.54101767404001,30.064483219694054,100.83729154877474
295,9.696857305553259,18.613806261428117,28.310663566981376,91.37647601502083
300,9.890540480100057,19.02959492596092,28.92013540606098,93.41761163222823
305,10.09691604455925,20.16625624152108,30.26317228608033,98.99756148126657
310,10.31998658024978,20.61225770159652,30.9322442818463,101.18701382362273
315,10.539627961420043,21.60489370905055,32.144521670470596,106.05993336801099
320,10.74778124291545,20.737567813836495,31.485349056751943,101.80216992360126
325,10.945497337023792,21.11440282891574,32.05990016593953,103.65207935283837
330,11.158787049090714,22.687409145536137,33.84619619462685,111.37407731195498
335,11.423081514429795,25.009971100054155,36.43305261448395,122.77569629034726
340,11.731393214603514,28.335011444656832,40.06640465926034,139.09855175742956
345,12.038937207203396,27.601390652087648,39.64032785929105,135.49715600769346
350,12.323441275550145,28.63944258380387,40.962883859354015,140.59302549879106
355,12.611342866795427,32.17411901348449,44.78546188027992,157.94499916077493
360,12.93331192208663,30.526226725177708,43.45953864726434,149.8553807322306
365,13.259511849293762,31.935046251814235,45.194558101108,156.77137426290136
370,13.52409060023384,31.427954031551568,44.95204463178541,154.28202310863185
375,13.77263957347206,29.905369709855556,43.67800928332762,146.80755024702228
380,14.026846739022183,34.279960339310634,48.30680707833282,168.2827214244657
385,14.287169397141382,28.405068489003817,42.6922378861452,139.44246668501324
390,14.52280238690973,27.82660564479206,42.34940803170179,136.60275214907603
395,14.751219236930886,26.737183843795272,41.48840308072616,131.25470437900182
400,14.922951291233797,29.37802510726459,44.30097639849839,144.2187787322914
405,15.064930883249017,27.92881841547982,42.99374929872884,137.10452178490453
410,15.231870106736807,27.52927339398257,42.76114350071938,135.1431273467654
415,15.384117203860106,27.40896546140281,42.793082665262915,134.5525272963839
420,15.50017316625606,26.798739113509107,42.29891227976517,131.55688350064983
425,15.591188709629224,28.04435453762925,43.635543247258475,137.67169668434101
430,15.648722488626829,25.66584812245804,41.31457061108487,125.99544243816676
435,15.697786290111193,24.998424207187277,40.696210497298466,122.71901178615292
440,15.662785357125406,24.201836861072785,39.86462221819819,118.80850882379345
445,15.617053568060442,27.052009931192906,42.66906349925335,132.80020764791712
450,15.539260268980344,24.80299473435086,40.3422550033312,121.75963484376634
455,15.495487566911137,26.397787684769337,41.89327525168048,129.58858491105138
460,15.445148563494195,28.16274545626672,43.60789401976091,138.25288597928338
465,15.367320814654823,28.165982285971328,43.53330310062615,138.26877580255294
470,15.308168437548828,29.013864924115556,44.32203336166438,142.43109093895183
475,15.236922854714475,28.012507864294836,43.24943071900931,137.51535913890677
480,15.091272793272006,28.794167101176342,43.885439894448346,141.35257896958865
485,14.962827286252576,29.842919879343377,44.80574716559595,146.50097966388674
490,14.82886794729584,29.561401378828165,44.390269326124006,145.11898566712858
495,14.68686090258965,29.5632321135735,44.25009301616315,145.1279728719591
500,14.559126694917756,30.921105380267704,45.48023207518546,151.79386765150437
505,14.441363898103445,33.137609198153925,47.57897309625737,162.67483982386344
510,14.307294864724684,32.71489946560101,47.02219433032569,160.59972819997282
515,14.212480875827591,31.925796783741546,46.13827765956914,156.72596797760832
520,14.156296038031755,31.36384832646587,45.520144364497625,153.96732372147167
525,14.109289295607274,31.34485201044573,45.454141306053,153.87406947831428
530,14.07874188066216,29.148931413140843,43.227673293803,143.0941417745258
535,14.0684796372906,29.27337643762854,43.341856074919136,143.70505109826001
540,14.05814067527115,30.43091620045307,44.489056875724216,149.38749470429192
545,14.022335370938022,29.285671482295626,43.30800685323365,143.76540833193627
550,14.011719677649634,26.873107851408843,40.88482752905848,131.92196483326498
555,14.017920992617452,26.572504086509785,40.590425079127236,130.44627993961464
560,14.030569419214544,26.94312393865976,40.9736933578743,132.26567869960124
565,14.052496326322572,26.38033229076671,40.432828617089285,129.5028951617861
570,14.080799691169783,24.000891250956528,38.081690942126315,117.82205277793025
575,14.098372373801137,23.299602659576756,37.39797503337789,114.37937806380626
580,14.110360277056696,27.419467403038222,41.52982768009492,134.6040820619424
585,14.129367326987847,26.031041265949746,40.16040859293759,127.78820110603095
590,14.148703452903542,23.393641720274193,37.542345173177736,114.84102238596195
595,14.129810492436462,21.370760102272257,35.50057059470872,104.91055512674173
600,14.088536653289596,21.825795873514583,35.91433252680418,107.1443575341012
605,14.058172202060081,21.858119823266474,35.916292025326555,107.30303806282976
610,14.060307379148156,23.120222411497192,37.18052979064535,113.49878788756827
615,14.076368550419867,25.854105758433192,39.93047430885306,126.91961233210053
620,14.083746889827472,24.83944909546074,38.92319598528821,121.93859185056094
625,14.058180259635167,25.42881266573972,39.486992925374885,124.83181881270686
630,14.03332921848533,25.398290546390037,39.431619764875364,124.68198359536802
635,14.016666207448619,28.372960817687925,42.38962702513655,139.28484788224455
640,14.050759327293475,30.835964246450278,44.88672357374375,151.37590387435466
645,14.08426989067998,29.422759587077877,43.507029477757854,144.43838342056918
650,14.12809118492787,30.262046559560805,44.390137744488676,148.55850183341235
655,14.150404527089176,28.093433007819336,42.24383753490851,137.912626325017
660,14.202437809729066,25.7090467161843,39.911484525913366,126.2075073542871
665,14.278673367000083,24.43654408864131,38.715217455641394,119.96070300961719
670,14.384642513264085,24.921452511988736,39.30609502525282,122.34115235421504
675,14.491545298810085,25.660759249872584,40.152304548682665,125.97046080694005
680,14.602216451254616,24.534861309447155,39.13707776070177,120.44334911878217
685,14.713194737889221,27.12725431754481,41.840449055434036,133.1695875999905
690,14.859619439800904,28.97815795311413,43.83777739291504,142.2558029224411
695,15.018412803762832,28.445942888803067,43.4643556925659,139.64312197068816
700,15.204154564876541,28.06259746243122,43.26675202730776,137.7612524773475
705,15.402490542259708,28.497088499775213,43.89957904203492,139.89419934995337
710,15.608178493902058,28.512898593003733,44.12107708690579,139.97181220271443
715,15.812466837115876,26.92397745703713,42.736444294153,132.17168728300481
720,16.019266146889205,25.694546307098232,41.71381245398744,126.13632383252634
725,16.19253031578166,26.68503295325782,42.877563269039484,130.99869201208298
730,16.34651090589733,23.454462442446403,39.80097334834373,115.13959556238433
735,16.45752040136817,21.653905957428293,38.111426358796464,106.30053792118137
740,16.549396594328417,19.66861224255347,36.218008836881886,96.55459230575126
745,16.60277699179097,17.842708343982036,34.44548533577301,87.59110243966813
750,16.65856618105065,18.50670865775622,35.165274838806866,90.85072639263056
755,16.683317464249214,18.33523738386982,35.01855484811904,90.00896192353248
760,16.72169619273927,19.038126163347343,35.759822356086616,93.45949207287912
765,16.775147922249275,19.397998281986812,36.17314620423609,95.22612945781188
770,16.831596629324338,19.50449336541985,36.336089994744185,95.74892126623429
775,16.84787674072401,21.35551306994924,38.20338981067325,104.8357063793229
780,16.88954232170587,19.638011994765275,36.52755431647115,96.40437355044672
785,16.9372578628996,22.257413084342662,39.19467094724226,109.26319659146421
790,16.970436263504343,19.9605582268838,36.930994490388144,97.98777554942362
795,16.994148217626385,20.6123468757286,37.60649509335499,101.18745158567029
800,17.032080241138516,21.32195774163061,38.35403798276913,104.67098092713867
805,17.049769931971927,23.06724980652723,40.11701973849915,113.23874166706358
810,17.085082849516112,23.330103720217057,40.415186569733166,114.52910990246876
815,17.133157117490178,23.439955759139426,40.57311287662961,115.06838124003455
820,17.186595410178537,24.333191297929776,41.51978670810831,119.45333693580629
825,17.23747005181222,21.58441453054608,38.8218845823583,105.95939964926811
830,17.304594646411523,22.38756369447304,39.69215834088456,109.90211503393039
835,17.37924082829086,24.085744007020534,41.4649848353114,118.23860088853127
840,17.42462603076123,23.538060401648064,40.9626864324093,115.54998378747963
845,17.454982610392772,22.34998878650635,39.80497139689912,109.71765718429113
850,17.46210395009496,22.890617820394628,40.35272177048959,112.37164290082269
855,17.405862182293237,21.56943857877012,38.97530076106336,105.88588165520292
860,17.31320676623082,20.80687306165602,38.12007982788684,102.14239422948216
865,17.200007066234605,19.454463199476734,36.65447026571134,95.50331968458455
870,17.0657681241461,18.34452788080232,35.41029600494842,90.05456962236617
875,16.93263849316319,16.793780020504368,33.726418513667554,82.44183998116979
880,16.71330228986333,17.05553149625003,33.76883378611336,83.72679627164827
885,16.48174093433588,19.5656779335378,36.047418867873674,96.04928058783659
890,16.250128157945422,19.14733612407947,35.39746428202489,93.9956114037287
895,15.997180638019396,19.685270586453424,35.68245122447282,96.63636928034987
900,15.767485792898386,20.31042927699428,36.07791506989267,99.70531698988758
905,15.555137994695691,21.403807991372165,36.95894598606786,105.07278952433201
910,15.332790482551012,24.089661700262102,39.42245218281312,118.25783311849511
915,15.07891986289014,26.633921686371348,41.71284154926149,130.74778323033493
920,14.794009986556306,31.414973443415747,46.20898342997205,154.21830049414908
925,14.523339480493375,35.30740704309717,49.83074652359055,173.3265291103667
930,14.253304271680708,39.06309875760054,53.31640302928125,191.7634822541886
935,13.999404623020043,38.495562914334805,52.494967537354846,188.97740912967672
940,13.770034437191768,38.83566434530569,52.605698782497456,190.6469908269024
945,13.59136803342228,35.20868905549186,48.80005708891414,172.8419156089701
950,13.444164726501855,32.45629485784584,45.90045958434769,159.3302201044211
955,13.327025398439405,29.89738539475848,43.22441079319788,146.76835468611884
960,13.24571277074841,28.026650607555293,41.2723633783037,137.5847868541293
965,13.178157199863803,27.86532576946092,41.04348296932472,136.79283194755521
970,13.097168419002621,28.106401421142664,41.203569840145285,137.97628917249423
975,13.014613369897964,27.07600896381552,40.09062233371348,132.9180205765586
980,12.941886345969616,25.818711124877535,38.76059747084715,126.74585760194302
985,12.878895928107847,27.121603761524415,40.000499689632264,133.14184862552085
990,12.81890379447386,27.611741843229183,40.430645637703044,135.54797072854026
995,12.778997276663157,28.662954549787877,41.44195182645103,140.70844738325837
1000,12.775616094506606,25.22274549619529,37.9983615907019,123.82022067362131
1005,12.784160670142231,27.569912096121392,40.35407276626363,135.34262557615034
1010,12.809689540512872,27.543144817618174,40.35283435813105,135.2112231349847
1015,12.848436420167065,25.2643044043953,38.112740824562366,124.02423625888169
1020,12.865994800738779,25.511290160049022,38.377284960787804,125.23670659732672
1025,12.876678623778478,27.873691218879014,40.75036984265749,136.83389852348125
1030,12.889756605614837,26.724582498728793,39.61433910434363,131.192843495255
1035,12.922705600130817,26.321680366155885,39.2443859662867,129.21496876418834
1040,12.97183736848952,27.664515151072365,40.63635251956188,135.80703858551905
1045,13.055404051740842,28.043683519473507,41.09908757121435,137.6684026093113
1050,13.159514980588547,27.240129119739112,40.39964410032766,133.7236978937449
1055,13.24673851199623,25.58539263169242,38.832131143688656,125.60048081027792
1060,13.326125818945119,23.976349152781953,37.30247497172707,117.70157390253472
1065,13.393545868497363,23.07453149103046,36.468077359527825,113.27448796526896
1070,13.446472957619742,23.03469923376681,36.48117219138655,113.07894863014553
1075,13.497382406430637,23.513441443323853,37.01082384975449,115.4291276002371
1080,13.562500810198761,23.742107105993608,37.30460791619237,116.55166332167632
1085,13.690160857918967,23.61591014064095,37.30607099855992,115.93215359777791
1090,13.82865181164251,22.984393113001683,36.813044924644196,112.83199236698572
1095,13.943533092859768,22.2058897137265,36.149422806586266,109.01026476370168
1100,14.043469526832336,21.90621102074736,35.949680547579696,107.53912111276738
1105,14.102183193919391,21.19398292049357,35.29616611441296,104.04274358492525
1110,14.142471389414535,20.007567101499312,34.15003849091384,98.21854540076232
1115,14.187455871038201,20.86759556417628,35.05505143521448,102.44048523876769
1120,14.237764678101128,19.755079072659434,33.992843750760564,96.97906401864566
1125,14.30274734680392,21.626770957760062,35.929518304563985,106.16733031111349
1130,14.393236769833736,22.606008259666503,36.99924502950024,110.9744746734188
1135,14.510401239050859,24.834703361786612,39.34510460083747,121.91529471223485
1140,14.628939473139315,24.12142887648211,38.750368349621425,118.413780407038
1145,14.737876098933267,25.153514665158955,39.89139076409222,123.48036168493071
1150,14.832655520872946,22.038994562016203,36.87165008288915,108.19096479823028
1155,14.904281907778236,20.984981855646204,35.88926376342444,103.0167427487226
1160,14.946928728531052,19.456508436551697,34.40343716508275,95.51335989634461
1165,14.984422316231116,20.66995618831971,35.65437850455083,101.47025972798622
1170,15.001390860980024,18.511157923754528,33.51254878473455,90.8725681504134
1175,15.020999382459037,17.473482214872305,32.494481597331344,85.7785455635053
1180,15.062914688630737,16.92095479098631,31.98386947961705,83.06614981879498
1185,15.081460887511897,14.091897299964346,29.173358187476243,69.17810884841208
1190,15.123452100878042,15.988314043901259,31.111766144779303,78.4877512011385
1195,15.19314615935352,15.701251840787414,30.89439800014093,77.07854278082701
1200,15.264355031581767,16.26755208914823,31.531907120729997,79.85855028358436
1205,15.336370925552016,17.072675335498044,32.40904626105006,83.81095657684591
1210,15.356309397211557,17.95539816363413,33.31170756084569,88.14430464119285
1215,15.327258625041143,16.931963970064643,32.25922259510578,83.12019464841595
1220,15.262112127757428,17.9912101820001,33.25332230975753,88.32010834255878
1225,15.254580854848514,15.961996538695416,31.21657739354393,78.35855672852813
1230,15.265337541854493,14.115826528710496,29.38116407056499,69.29557910494482
1235,15.28810957694392,13.010465145878696,28.298574722822615,63.86928281348922
1240,15.302254238756408,12.86762994909638,28.169884187852787,63.16809484851474
1245,15.335300299615165,13.104997663173053,28.440297962788218,64.33334954857109
1250,15.3755595614714,14.559435619767568,29.934995181238968,71.47328714056674
1255,15.366134101364853,17.621981367502762,32.98811546886762,86.50753828364049
1260,15.352857186996987,18.914881142761853,34.26773832975884,92.85447365217935
1265,15.374534255783358,20.744132835383446,36.118667091166806,101.83439807326059
1270,15.379922650198592,22.051079072822166,37.431001723020756,108.25028850646628
