#"Step","Potential Energy (kJ/mole)","Kinetic Energy (kJ/mole)","Total Energy (kJ/mole)","Temperature (K)"
5,4.340545675053907,1.970846481223966,6.311392156277873,9.675023135597675
10,4.341712347344074,5.013908100658046,9.35562044800212,24.613625330929356
15,4.3442339750060315,7.537135648400879,11.881369623406911,37.00032573269195
20,4.349383725318806,11.790060233168129,16.139443958486936,57.8782297924853
25,4.358901016727605,13.563088440118504,17.92198945684611,66.58214919246761
30,4.371206536820422,15.225934172640466,19.597140709460888,74.745175123888
35,4.390196048874663,18.074479793882965,22.46467584275763,88.72888468771512
40,4.416766208666116,17.76086330411087,22.17762951277699,87.18931941809272
45,4.450447820557676,23.666065984029405,28.11651380458708,116.17837213879149
50,4.491420676241224,24.79462016511081,29.286040841352033,121.71852349799687
55,4.5421298706215145,27.569262378160808,32.11139224878232,135.33943606526753
60,4.598979052240407,27.019835593217852,31.618814645458258,132.6422615738587
65,4.663128369830421,26.203820167959844,30.866948537790265,128.63638481298952
70,4.7284619662028575,25.991155551037323,30.71961751724018,127.59239934357308
75,4.794774156374989,27.39420501878546,32.18897917516045,134.4800672518421
80,4.863872624062957,25.251819189769765,30.115691813832722,123.9629454675868
85,4.939990861180974,27.425183523211594,32.36517438439257,134.63214289542185
90,5.021312560940729,29.703289439339805,34.724602000280534,145.81552407394688
95,5.106566334208502,30.718855684832402,35.8254220190409,150.80100975965635
100,5.194993098439783,30.29936567013912,35.494358768578905,148.74170395579222
105,5.2887735658730435,28.777167640461222,34.065941206334266,141.2691274287008
110,5.394894396748985,27.0481256142258,32.443020010974784,132.78113926441753
115,5.51255676157261,31.563301270692573,37.07585803226518,154.9464521661479
120,5.625255045558042,28.276630541305927,33.90188558686397,138.81195582214073
125,5.730635914957771,29.178145284055457,34.90878119901323,143.23755470885226
130,5.842562756334863,28.696929453948815,34.539492210283676,140.87523256258027
135,5.9649752076223725,29.20423110355542,35.16920631117779,143.36561182013796
140,6.085113436830013,29.05707750824714,35.142190945077154,142.64322453494984
145,6.196590544107888,26.352360519750132,32.54895106385802,129.3655797826801
150,6.315833353716513,25.71586274976657,32.031696103483085,126.2409677395732
155,6.450063581620031,25.588160415404797,32.03822399702483,125.61406805398597
160,6.587253862599725,25.25010916576448,31.837363028364205,123.9545508402167
165,6.750770807442468,32.247116407108294,38.99788721455076,158.3033484684846
170,6.923309936779835,29.60727650221991,36.53058643899975,145.3441898544623
175,7.09187714264469,29.70358452864789,36.79546167129258,145.81697268798658
180,7.269354916227452,28.384201314313252,35.6535562305407,139.34002826587243
185,7.464419374179611,28.55637808877582,36.02079746295543,140.18525608661238
190,7.674675983533257,29.207126918313385,36.88180290184664,143.379827577198
195,7.891455995623353,29.359931804048355,37.251387799671704,144.12995744210767
200,8.114823372318229,28.05821979436635,36.17304316668458,137.7397621988245
205,8.361869611078076,28.590261472958385,36.95213108403646,140.3515919879633
210,8.621735194522774,28.201305465971558,36.82304066049433,138.4421797622124
215,8.903460404693504,29.32075496605212,38.224215370745625,143.9376356059808
220,9.200595043786938,31.61324081173255,40.813835855519486,155.1916088638136
225,9.503064707712781,32.20660514534683,41.70966985305961,158.10447585281995
230,9.814363063905406,32.637345885964336,42.45170894986974,160.2190122566553
235,10.130426299232699,36.35889483673636,46.489321135969064,178.48835618679112
240,10.44119738130482,37.68284494591228,48.1240423272171,184.98771981490032
245,10.739873860185785,37.130460217025906,47.870334077211695,182.27602456991733
250,11.067720367625533,39.939292910824044,51.00701327844958,196.0647805970449
255,11.430146018693279,44.02209571726815,55.45224173596143,216.10754495578794
260,11.797563141674354,43.897710535229415,55.69527367690377,215.49692940281858
265,12.183407282521642,41.48973689951484,53.67314418203648,203.67601851128157
270,12.524310044351498,36.85563958021737,49.379949624568866,180.92691085426608
275,12.828473038593653,40.41837587335706,53.24684891195071,198.41663234731365
280,13.135492712463341,44.32317701833857,57.45866973080191,217.5855741078826
285,13.391916424973635,44.524537155957645,57.91645358093128,218.57406509823198
290,13.604336040570834,44.44251077948335,58.046846820054185,218.17139188259662
295,13.849102446993326,41.1845471980324,55.033649645025726,202.17782093439317
300,14.09558984004061,45.34299990922493,59.43858974926554,222.5919559633633
305,14.360048927086394,44.12432854703186,58.484377474118254,216.60941306302237
310,14.619641682127064,41.476190067770396,56.09583174989746,203.6095161673445
315,14.848781064114402,39.41157753531132,54.260358599425714,193.47418893212463
320,15.009218425739169,40.614708600106,55.62392702584517,199.3804434262929
325,15.123121222109784,45.284359039216454,60.40748026132624,222.30408383358113
330,15.251505164214489,45.10133776768311,60.3528429318976,221.4056196187064
335,15.390740979106862,44.849110241398066,60.23985122050493,220.16741706184013
340,15.572702932822015,49.54812265099663,65.12082558381864,243.23519743461299
345,15.772643394037155,52.29876389874666,68.07140729278382,256.7382875855939
350,15.962983732271164,53.91008506133022,69.87306879360139,264.64837580169507
355,16.147217066562327,61.8776985040437,78.02491557060603,303.761947116432
360,16.321394870541667,62.32241695472505,78.64381182526671,305.9451010759921
365,16.474322590580645,63.60187258351631,80.07619517409695,312.22603818979434
370,16.641720786938794,64.90783098295321,81.549551769892,318.6370792572007
375,16.83731585801418,64.45647514391644,81.29379100193061,316.4213418942601
380,17.077006715787554,61.01148559226364,78.0884923080512,299.50964738549567
385,17.338090599904252,62.42466961718869,79.76276021709295,306.4470665433368
390,17.645463795418717,63.53895885416161,81.18442264958033,311.91719029481504
395,17.94603763544513,59.03541867851648,76.98145631396162,289.80899678174103
400,18.2663571705799,53.15009538271782,71.41645255329772,260.9175333472265
405,18.663128988246612,53.60804383596647,72.27117282421308,263.1656343141472
410,19.028064903930062,53.24826070114977,72.27632560507983,261.39943375702023
415,19.39688716203699,52.4773039099315,71.87419107196848,257.6147529801844
420,19.7591097375157,54.829020955690766,74.58813069320647,269.15949633937794
425,20.146888219643422,60.8703499140039,81.01723813364733,298.8168024757424
430,20.58754134430199,58.71309376637004,79.30063511067203,288.2266812579771
435,21.010192673419215,65.22464061431178,86.23483328773099,320.192319882067
440,21.45837475890026,61.095871284887636,82.5542460437879,299.92390264902264
445,21.965311510740182,60.82755914057248,82.79287065131267,298.6067395779554
450,22.50027086930905,56.20729944899644,78.70757031830549,275.9255618026542
455,23.054758708844904,50.124943559268324,73.17970226811323,246.0668515922515
460,23.658487185526404,48.262073461662496,71.92056064718889,236.9218920712256
465,24.257552301076988,47.589624743629706,71.8471770447067,233.62079431122666
470,24.82635109732928,42.078949822811595,66.90530092014087,206.56850593686173
475,25.409352633328794,40.65525563202269,66.06460826535148,199.5794916401498
480,26.010511230071238,44.21024874082348,70.22075997089472,217.03120130004058
485,26.562447400228695,41.652009992932264,68.21445739316096,204.47262846951818
490,27.15882472144797,39.49828812493191,66.65711284637987,193.89985727751477
495,27.719422106597666,40.826389231180805,68.54581133777847,200.4195984404038
500,28.323592165288577,42.27777184378819,70.60136400907676,207.54453713520257
505,28.928964602055753,38.31080925877505,67.23977386083081,188.0704405205252
510,29.46135816824176,38.94426639873252,68.40562456697428,191.18012589829846
515,30.085909842008505,35.46758736187745,65.55349720388595,174.11286549162764
520,30.704693406630863,38.475392829171874,69.18008623580273,188.8783927717526
525,31.179242613190354,37.88370726419633,69.06294987738669,185.97376697533724
530,31.51588681162858,36.52864809144578,68.04453490307436,179.32168677966237
535,31.67650038956709,35.00646482497486,66.68296521454195,171.849182726186
540,31.818135956743646,31.56492663708852,63.383062593832165,154.9544312033963
545,32.0110024934301,34.684265106403565,66.69526759983367,170.26748178643322
550,32.15726386074617,36.12000675756984,68.27727061831601,177.31563790823742
555,32.18322853438747,33.34390529810351,65.52713383249097,163.6875617983098
560,32.19297122207085,32.93995624857626,65.1329274706471,161.70454767873633
565,32.11323200027463,31.11917207784881,63.23240407812344,152.76619091450075
570,31.900303451529894,30.585642428334868,62.48594587986476,150.14705657209933
575,31.63184600633553,31.051661711538447,62.68350771787398,152.43477780740793
580,31.44116994649512,34.864103290871576,66.30527323736669,171.1503200044112
585,31.20920676026318,37.6164687132952,68.82567547355838,184.6618742493821
590,30.936742386783592,38.35998885342515,69.29673124020874,188.31186658824382
595,30.71730636151331,39.15840716233098,69.8757135238443,192.2313578749276
600,30.54432180845078,38.34964631446648,68.89396812291726,188.26109434156749
605,30.383936270358838,39.43112093334876,69.8150572037076,193.57012883914518
610,30.22955069637894,41.93197563188525,72.16152632826419,205.84699936032462
615,30.076097898643187,44.71322668350948,74.78932458215267,219.5003551781043
620,29.933570486538038,46.133614855218156,76.06718534175619,226.47313999606547
625,29.68662297521752,48.35657168374615,78.04319465896367,237.38579044872094
630,29.512675604855797,42.66128196787791,72.17395757273371,209.4272151411524
635,29.386948960179623,39.14039027653308,68.5273392367127,192.1429117231919
640,29.2596985987857,38.15060563457375,67.41030423335945,187.2839897313234
645,29.16282603961019,44.268931179169776,73.43175721877996,217.3192774916986
650,29.122278031209927,45.21750277306653,74.33978080427646,221.9758817498965
655,29.016231471653185,42.044970512694896,71.06120198434809,206.40169912839508
660,28.87505404767714,39.72006701055877,68.59512105823592,194.9885853290748
665,28.623443160999592,38.721552080253154,67.34499524125275,190.08680574148008
670,28.341100208301302,38.97111881415666,67.31221902245797,191.3119462825599
675,27.934980811409172,40.309747749985405,68.24472856139458,197.88336929673622
680,27.52696948534646,39.7365533871054,67.26352287245186,195.0695181039157
685,27.187779162998133,35.041833118888505,62.22961228188664,172.02280815319978
690,26.780764532825888,37.44011207846539,64.22087661129127,183.79612720193327
695,26.354168357749334,38.68609196434554,65.04026032209488,189.91272955387967
700,25.927296560312627,42.193153361407894,68.12044992172052,207.1291390904903
705,25.45315303674492,40.49420907923887,65.9473621159838,198.78890285561698
710,24.83456389547631,47.80032180898883,72.63488570446515,234.6551209324895
715,24.216344620265957,49.80946849750534,74.02581311777129,244.5181624628144
720,23.67870317701419,52.255549369166864,75.93425254618106,256.5261444392547
725,23.14614582873973,52.78577736437041,75.93192319311014,259.1290707298656
730,22.62058919019632,55.10356268596085,77.72415187615718,270.5072408833368
735,22.194722136829544,54.17289358144658,76.36761571827613,265.9385211968752
740,21.872101602686445,50.96061908719778,72.83272068988423,250.16924117134704
745,21.6160033861558,54.80925348007308,76.42525686622888,269.0624564198533
750,21.31553667096795,53.657763514802305,74.97330018577026,263.4097116928847
755,21.068742268060046,53.917130800597384,74.98587306865743,264.68296382824434
760,20.85869922615847,52.31018843628572,73.16888766244419,256.79437143893153
765,20.635352865445164,54.518869184191814,75.15422204963699,267.6369396139371
770,20.45946843111597,52.80560459662107,73.26507302773705,259.2264039988785
775,20.372103303670286,50.00636415264973,70.37846745632001,245.48473699663478
780,20.365492481411835,50.86946364741436,71.2349561288262,249.72175274581912
785,20.382003889245933,55.26067093731281,75.64267482655875,271.27849627085914
790,20.4759407812056,46.832065323875696,67.30800610508129,229.90188216736541
795,20.618340274849118,48.64473398033355,69.26307425518266,238.80039930478904
800,20.805544592923546,50.704380492746296,71.50992508566983,248.91134800048394
805,21.058505283657368,49.99958107630336,71.05808635996073,245.4514384007234
810,21.318565757351408,43.19220058563638,64.51076634298778,212.03353174615893
815,21.48927142688264,43.0946817280446,64.58395315492724,211.55480485781624
820,21.623427701266763,51.19540698014976,72.81883468141652,251.32183134917656
825,21.792436394462328,48.00940712049569,69.80184351495802,235.68153534143227
830,21.95919023873801,50.32351490161323,72.28270514035124,247.0416521916673
835,22.198856735376882,52.299189225733116,74.49804596111,256.74037554550017
840,22.454038313366897,52.8850307720375,75.3390690854044,259.6163126457705
845,22.61372414631115,51.97706380916383,74.59078795547498,255.1590393594689
850,22.749648567423534,48.44769415410344,71.19734272152698,237.8331170250315
855,22.87650904536813,47.40405508140231,70.28056412677044,232.70981986830606
860,23.10231626683775,50.47672762805663,73.57904389489438,247.7937841751221
865,23.411053140935394,57.020696753644756,80.43174989458015,279.9185860264476
870,23.7294061089665,57.27968972956907,81.00909583853557,281.190000648488
875,23.97995081512398,55.97903495027809,79.95898576540208,274.8049954230932
880,24.18903595313214,57.07835149100225,81.26738744413439,280.2016171621169
885,24.358123779457266,57.24904139486372,81.60716517432098,281.0395458311459
890,24.458006338208286,57.5669542787062,82.02496061691448,282.6002023995715
895,24.562351551313093,60.61913952804382,85.1814910793569,297.5835931318279
900,24.678154424288163,55.80788980645457,80.48604423074273,273.96483194926986
905,24.72015796141469,54.35847530737875,79.07863326879344,266.84955486136573
910,24.76055640596592,53.916366037241765,78.67692244320769,264.6792095514758
915,24.909901635570613,52.65930746903122,77.56920910460184,258.5082211735859
920,25.09148536604166,46.42927266378244,71.5207580298241,227.92454484435333
925,25.39713429709661,49.67929889925584,75.07643319635245,243.8791508063442
930,25.724020863104812,42.6055298158468,68.32955067895162,209.1535239298383
935,26.115055068224073,42.860978126314436,68.9760331945385,210.40753754138495
940,26.60387034809947,42.21957872960182,68.8234490777013,207.25886307004865
945,27.084972398455726,44.44912938377663,71.53410178223236,218.20388307370303
950,27.655066278583696,44.03162972014007,71.68669599872376,216.15434804229895
955,28.245161015589254,39.62866029465042,67.87382131023968,194.53986337148578
960,28.8448073843889,38.14253505150546,66.98734243589436,187.24437067491928
965,29.38538528698757,37.44184370603139,66.82722899301896,183.80462788269298
970,29.97664867660471,37.82126519730159,67.79791387390631,185.66723450434236
975,30.52841827685855,36.502708123971246,67.03112640082979,179.19434566616434
980,31.167393056636442,36.58064826267541,67.74804131931185,179.5769592549641
985,31.83841074971078,34.04143474775371,65.87984549746449,167.11178262292486
990,32.419840799821806,32.30170065318887,64.72154145301067,158.5713063478526
995,33.032350028716195,34.67876230679003,67.71111233550621,170.2404681584928
1000,33.490841014080914,35.26891247412148,68.75975348820239,173.13755658055126
1005,33.87747038997877,33.62667628791684,67.5041466778956,165.07570435257958
1010,34.18593273472349,32.4505978732553,66.63653060797878,159.30225320885532
1015,34.47869816841613,29.472241868218788,63.95094003663492,144.68129539742856
1020,34.81067041763159,32.27103738452632,67.08170780215792,158.42077821867082
1025,35.04189570792292,34.70606455720999,69.74796026513292,170.37449681419153
1030,35.081993479274345,42.49749064536109,77.57948412463543,208.62315209014488
1035,34.90125175971183,43.65811048831267,78.55936224802451,214.32071602481355
1040,34.582221894376794,45.06256887994466,79.64479077432145,221.2153004389101
1045,34.1373375515777,44.79482865159656,78.93216620317426,219.90094494330125
1050,33.44977112066277,46.16218801163758,79.61195913230034,226.61340761815
1055,32.69296869210114,43.65462742103007,76.3475961131312,214.30361740406198
1060,32.06678644408152,45.43090090117275,77.49768734525426,223.0234680769851
1065,31.47271885110346,45.830737247136405,77.30345609823986,224.986292647293
1070,30.83920409414697,49.523103801742096,80.36230789588907,243.1123781548417
1075,30.09707030047611,58.12913092770305,88.22620122817916,285.35996686481764
1080,29.387702295201468,55.11448941762873,84.5021917128302,270.56088097285686
1085,28.654382483868595,52.48038892295653,81.13477140682512,257.6298975247621
1090,27.91935819145723,46.61179084735775,74.53114903881499,228.82053936527706
1095,27.197038250490117,49.5480443652495,76.74508261573962,243.23481312440828
1100,26.419495809967476,52.796324686370866,79.21582049633834,259.1808482708081
1105,25.7388185809998,45.187546516816255,70.92636509781606,221.8288243940657
1110,25.09028311177145,46.65585701020346,71.74614012197492,229.0368632388466
1115,24.460046474483157,42.770763855490216,67.23081032997337,209.96466938006407
1120,23.863964911509168,38.17840377933747,62.042368690846644,187.42045276701793
1125,23.282499603461364,35.95829965874553,59.24079926220689,176.5218064570206
1130,22.709764918473592,33.692610307034386,56.40237522550798,165.39937906111854
1135,22.089931608292826,33.83547302691869,55.92540463521152,166.1007021389245
1140,21.497098467204143,33.91373580973833,55.41083427694247,166.48489961023947
1145,20.974088280659977,37.28875941255577,58.26284769321575,183.05312638565428
1150,20.440346304129324,35.77897327334761,56.21931957747694,175.64148069645174
1155,19.938430102743766,42.47763361331296,62.416063716056726,208.5256725318433
1160,19.418372148495028,44.25386114544075,63.672233293935776,217.24529764274965
1165,18.93456950342685,43.8364517210752,62.77102122450205,215.19620560223456
1170,18.529209658377297,44.87455805250629,63.403767710883585,220.2923421453349
1175,18.224339265018653,41.97381114230764,60.198150407326295,206.05237280522874
1180,17.945951394488688,45.44912352517507,63.395074919663756,223.1129242119471
1185,17.669126172272932,49.12610641693898,66.7952325892119,241.16349024331015
1190,17.373009443057803,47.011539436866194,64.384548879924,230.7829331330122
1195,17.09960505585048,50.54402172402469,67.64362677987516,248.1241355959876
1200,16.870649726174157,49.60870491927718,66.47935464545134,243.53260002421362
1205,16.601646366930613,49.845739228716724,66.44738559564733,244.6962180176018
1210,16.330916911494068,49.97805117648588,66.30896808797995,245.34574661761104
1215,16.10215302909142,49.633966530943674,65.73611956003509,243.6566110416339
1220,15.933896140808983,51.48585243915177,67.41974857996075,252.74764840912766
1225,15.810146184365166,48.56402889132474,64.3741750756899,238.4042123816778
1230,15.744762527465099,43.447803732617636,59.192566260082735,213.28830546097382
1235,15.738517937135105,44.77709785771173,60.51561579484684,219.81390323676422
1240,15.738437354416998,46.046775032597616,61.78521238701461,226.0468372368454
1245,15.71875671638898,48.89566831146628,64.61442502785526,240.03225347626014
1250,15.694165158282852,53.375065640191046,69.0692307984739,262.02192806625254
1255,15.67878741320593,54.5546850058886,70.23347241909453,267.8127619861199
1260,15.688885272583507,51.29640133053906,66.98528660312257,251.81761967459414
1265,15.651357220442119,49.44377561604097,65.09513283648309,242.72295054631147
1270,15.601951876347899,51.999745194096555,67.60169707044446,255.2703838634991
1275,15.573758699703188,47.46964100409509,63.04339970379827,233.03178574716438
1280,15.57533421893467,44.20541165514194,59.78074587407661,217.0074557083247
1285,15.573463018988244,47.98300020548612,63.55646322447436,235.55190194984579
