#"Step","Potential Energy (kJ/mole)","Kinetic Energy (kJ/mole)","Total Energy (kJ/mole)","Temperature (K)"
5,4.340931977099399,0.8732283612504927,5.214160338349892,4.2867390627562925
10,4.341280036895104,1.1148195189858527,5.456099555880957,5.472726942945635
15,4.3413496050487765,2.340051504757116,6.6814011098058925,11.487476403009822
20,4.343026987230218,3.4519998239976775,7.7950268112278955,16.946108425713184
25,4.346994823585558,4.599034918625677,8.946029742211236,22.57698388130746
30,4.35285941703299,4.904232948751736,9.257092365784725,24.075222344089532
35,4.360115571206706,6.164296682294858,10.524412253501565,30.26096328865369
40,4.370534888982092,6.754155932207582,11.124690821189674,33.156623576768936
45,4.383459921917225,7.778727282228775,12.162187204146,38.18631595005284
50,4.399810057991501,8.93866951034871,13.338479568340212,43.88055342614865
55,4.419808536971335,9.74089448409379,14.160703021065125,47.81873189660856
60,4.442253153273212,10.621579071378525,15.063832224651737,52.14207409414618
65,4.468276378423392,11.180267829920322,15.648544208343713,54.88471626135005
70,4.499641200617392,12.321698866097368,16.82134006671476,60.48808100229315
75,4.535630342220987,12.229082660080557,16.764713002301544,60.0334215732201
80,4.574284283221441,11.39097005632814,15.965254339549581,55.919068218561634
85,4.6189965671319495,12.496548551352705,17.115545118484654,61.346430328947335
90,4.66992860490737,13.965389365414982,18.63531797032235,68.55707255499077
95,4.7285937860993785,13.829284872383958,18.557878658483336,67.88892608519767
100,4.791130930558747,13.279892982412884,18.071023912971633,65.19192289564491
105,4.85557161021539,12.682881675208657,17.538453285424048,62.26115265836739
110,4.9271804793183325,11.28153822125043,16.208718700568763,55.3818596910409
115,4.99889469990571,11.495415047931461,16.49430974783717,56.431795982893576
120,5.075943927218165,11.527786392673214,16.60373031989138,56.590709176940216
125,5.158429579604114,11.230639822498228,16.389069402102344,55.131995893843154
130,5.238897793308109,11.847924517956779,17.08682231126489,58.16228961114115
135,5.317716024527771,11.227897343881057,16.54561336840883,55.11853287461625
140,5.406064664379837,12.130758674583603,17.53682333896344,59.55074225571364
145,5.50361724815451,12.877207093813968,18.380824341968477,63.21510972136171
150,5.601654749477864,13.014515646973818,18.616170396451682,63.88916700648925
155,5.705348236899261,13.495743965251544,19.201092202150804,66.25155045806599
160,5.812271866028776,13.607292718162398,19.419564584191175,66.79915108319908
165,5.917636769079404,13.206475805227443,19.124112574306846,64.83151284108891
170,6.020733690402869,14.280251091275009,20.300984781677876,70.102750775609
175,6.118447156560045,14.25345412457964,20.371901281139685,69.9712025930329
180,6.218969004747665,14.95573539743746,21.174704402185125,73.41875044991961
185,6.316599310686085,12.645159465393611,18.961758776079698,62.075971693658374
190,6.393154735099825,11.641447832603689,18.034602567703512,57.148681130326324
195,6.4620472660978026,12.169765980928213,18.631813247026017,59.74223184911264
200,6.530786094863743,14.028032598424373,20.558818693288117,68.86459256450368
205,6.616189153884323,15.51762167417224,22.133810828056564,76.17708945743465
210,6.70996466961697,14.212041471786506,20.922006141403475,69.76790498578791
215,6.808417168941051,14.123135542083586,20.931552711024636,69.3314595624826
220,6.911065015587446,15.202541482648634,22.11360649823608,74.63033877360348
225,7.009273048292705,13.823120427924158,20.832393476216865,67.8586643964589
230,7.11427924508063,15.88161894558485,22.995898190665482,77.96397750567286
235,7.221975599551909,17.002223054774028,24.22419865432594,83.46510140626096
240,7.313420517426279,17.407828361289983,24.721248878716263,85.45624620716191
245,7.392226347744072,17.681445685794333,25.073672033538404,86.79945277860217
250,7.483541168429891,17.015679259543152,24.499220427973043,83.5311588560415
255,7.565410831853047,16.564023345546573,24.12943417739962,81.31394840414845
260,7.644137638556454,19.1257636350365,26.769901273592954,93.88971054713151
265,7.716842759579979,17.208368679019998,24.925211438599977,84.47708468496025
270,7.796733359280979,17.032140274549818,24.828873633830796,83.61196712930995
275,7.871972919687595,18.038480432407535,25.910453352095132,88.55216130592984
280,7.944458230904634,17.068062316341624,25.012520547246258,83.7883109433638
285,8.01293777089877,17.597168791115045,25.610106562013815,86.3857316117906
290,8.073802280631915,17.361676132298587,25.4354784129305,85.22968168907025
295,8.12499328573099,17.498038450455105,25.623031736186096,85.899093840426
300,8.163762667635293,16.639928620267522,24.803691287902815,81.68657270342062
305,8.190927704269502,16.06318299121843,24.25411069548793,78.85528809674774
310,8.216686121020343,15.418606621941493,23.635292742961838,75.69101764502746
315,8.243702355468798,16.331064512131167,24.574766867599966,80.17033720743254
320,8.26785740228763,17.869855966585206,26.137713368872838,87.72437201660597
325,8.310417782067216,19.246102206157953,27.55651998822517,94.4804610042558
330,8.371892929643046,18.888376325984648,27.260269255627694,92.72435965397234
335,8.43546194572053,17.55859521872885,25.99405716444938,86.19637124871083
340,8.512037487862292,18.932064749726635,27.44410223758893,92.9388291798783
345,8.587009543745562,17.294086511064705,25.881096054810268,84.89787951401806
350,8.642697856068263,15.779635906331702,24.422333762399965,77.46333563751476
355,8.688183567593303,16.38401657355618,25.072200141149484,80.4302825782391
360,8.730452639418509,16.834022251229072,25.56447489064758,82.63939190467009
365,8.769826241881775,19.027918085953157,27.797744327834934,93.40937990742147
370,8.81735510480916,19.13498418084756,27.95233928565672,93.9349748510206
375,8.87102752100788,18.76690277903534,27.637930300043223,92.12803752117601
380,8.913426414364531,18.588917883596082,27.50234429796061,91.25429722858236
385,8.948457242164793,17.344356849740194,26.292814091904987,85.14466012039874
390,9.003184531800356,19.0045116686131,28.007696200413456,93.29447616862501
395,9.061920743389022,16.956163659968237,26.018084403357257,83.2389926176754
400,9.129875461780644,17.42580554544593,26.555681007226575,85.54449746076219
405,9.213452757367753,19.600035086930145,28.813487844297896,96.21794225535409
410,9.306204789620326,18.6610763920932,27.967281181713524,91.6085283905683
415,9.38881612841638,17.376595104739266,26.765411233155646,85.30291996759578
420,9.486311429316956,18.99251407962489,28.478825508941846,93.23557916566806
425,9.599457282314258,20.50218320532079,30.10164048763505,100.64665042735986
430,9.733553201464884,19.638551041161993,29.372104242626875,96.40701976688675
435,9.870668154471545,18.12350496068396,27.994173115155505,88.96955265832824
440,10.021928404957029,20.199437541536074,30.2213659464931,99.16045080236424
445,10.175470503398035,21.341891221551283,31.517361724949318,104.76883577339017
450,10.331531734701196,20.029778428524992,30.361310163226186,98.32758235767047
455,10.47594257466209,19.898191723582567,30.374134298244655,97.68161402539103
460,10.612852489098048,21.098239551997093,31.711092041095142,103.57273269665545
465,10.753271341368537,20.93266287938747,31.685934220756003,102.75990523724901
470,10.875633797175519,19.823245933986378,30.698879731161895,97.31369990566292
475,10.978903295488008,18.280320332743354,29.25922362823136,89.73937028093158
480,11.090775976684975,18.525043055283547,29.61581903196852,90.94073123163962
485,11.193763332875942,19.266559408384044,30.460322741259986,94.58088683991201
490,11.285258563459156,18.344127140803966,29.62938570426312,90.05260236170312
495,11.376373756824142,19.393171619875478,30.769545376699618,95.20243503613075
500,11.473326447354312,20.370674022556077,31.84400046991039,100.0010626568695
505,11.57386335913169,21.1652666937555,32.73913005288719,103.90177362064605
510,11.674663494109895,20.448697656835456,32.12336115094535,100.3840861312842
515,11.768667631514058,18.927954584128088,30.696622215642144,92.91865208966051
520,11.847103582605852,20.315162352786956,32.16226593539281,99.72855198978885
525,11.95307507481317,22.1496680899992,34.10274316481237,108.73426888301559
530,12.057023605627714,21.81135736678096,33.86838097240867,107.07347789531548
535,12.137442154089793,20.387348724856768,32.52479087894656,100.08291993600075
540,12.204777118408163,19.475827388984857,31.68060450739302,95.60819798420535
545,12.270666276534751,19.296001986457576,31.566668262992327,94.72542251366785
550,12.351866685272723,20.209214746587943,32.561081431860664,99.20844778537611
555,12.457473910430036,17.826815747751212,30.284289658181248,87.51308457390192
560,12.534544327398084,18.14883576099694,30.683380088395023,89.09390332765032
565,12.60987183257113,19.23632688723594,31.84619871980707,94.43247328038723
570,12.701859481598534,21.10036338337069,33.802222864969224,103.58315873332114
575,12.79399280114434,21.359718093262934,34.153710894407276,104.85634913269479
580,12.894459923708824,22.441382935009024,35.33584285871785,110.16631744760726
585,12.998645968584277,23.742290016734003,36.74093598531828,116.55256124328609
590,13.101191247876077,23.6491446054463,36.750335853322376,116.09530390854756
595,13.161333604908123,21.78537601402315,34.94670961893127,106.94593361856904
600,13.203512584235769,20.720690694367175,33.924203278602945,101.71931896444055
605,13.229963906421444,17.00180316712235,30.231767073543793,83.46304014842934
610,13.263271687282948,17.011809307839748,30.275080995122696,83.51216099262555
615,13.287392082278071,15.848488220321002,29.135880302599073,77.80133645956369
620,13.288129419859716,16.69500762432706,29.983137044186776,81.95695938429024
625,13.280268745072057,17.37400435509127,30.654273100163326,85.29020179648417
630,13.277652526369101,19.01359552270675,32.291248049075854,93.33906944331878
635,13.293556378795056,19.822774399155882,33.116330777950935,97.31138510822042
640,13.306114903814567,20.527585420074775,33.833700323889346,100.77135167516461
645,13.309804824922015,22.124170215774885,35.4339750406969,108.60909803618452
650,13.33842832496755,19.91180137057356,33.25022969554111,97.74842473376411
655,13.383520951410688,17.786099768780094,31.169620720190782,87.31320698714568
660,13.407906635017698,18.767259482022176,32.17516611703987,92.1297886010714
665,13.431757508179162,18.88818248221851,32.31993999039767,92.72340806137498
670,13.464287563112673,18.89531160929727,32.35959917240994,92.75840544452011
675,13.473565338053161,21.611991249604184,35.085556587657344,106.09477569069641
680,13.453139646185809,21.489366014335868,34.942505660521675,105.49279983944074
685,13.424851091334098,22.3115208473672,35.736371938701296,109.52881538220468
690,13.402781488700054,21.32318740834658,34.725968897046634,104.67701744699926
695,13.427905456684924,20.421545868454437,33.84945132513936,100.25079610425173
700,13.49183412172979,20.382048970774452,33.873883092504244,100.05690307276565
705,13.534324294647938,19.946903801288123,33.48122809593606,97.92074501975017
710,13.57801438301002,21.551370030994235,35.12938441400426,105.7971818912062
715,13.64867902453877,22.13137741242636,35.78005643696513,108.64447866831907
720,13.715750492595408,24.21574184290157,37.931492335496976,118.87676935152872
725,13.768054226612886,24.63499858734236,38.40305281395524,120.93493001541812
730,13.791698121028425,24.14622025618223,37.93791837721065,118.53548302286686
735,13.825902664699072,24.266113867664803,38.09201653236387,119.12404914202185
740,13.835085650660751,25.25103567573785,39.0861213263986,123.95909914243765
745,13.827199729400022,22.999652833888405,36.826852563288426,112.90690340345066
750,13.812019436431186,24.9861389757247,38.798158412155885,122.65870272618352
755,13.817606304594557,25.200277734553616,39.01788403914817,123.70992486125884
760,13.811300887485432,24.50291231669662,38.31421320418205,120.28650928018222
765,13.7861981529692,24.79494665500013,38.58114480796933,121.72012625968469
770,13.75827361749262,26.748499015496982,40.5067726329896,131.31025134779938
775,13.718622573559164,25.30578505323076,39.02440762678992,124.22786766345129
780,13.673683248229937,23.403545423164747,37.077228671394685,114.88964035570595
785,13.613676933787984,23.539553290744237,37.15323022453222,115.5573124844035
790,13.557800962859554,21.283431742224867,34.84123270508442,104.48185410314521
795,13.509901485662986,19.658825293731002,33.16872677939399,96.50654748988846
800,13.445514978884162,21.672393390888654,35.11790836977282,106.39129402428269
805,13.39944422991412,21.251053964290243,34.65049819420436,104.3229093281051
810,13.390850074119003,22.102782004792633,35.49363207891164,108.50410181346817
815,13.374748690579585,23.35565979997887,36.73040849055845,114.65456648435188
820,13.362229081237574,23.880192745365942,37.24242182660352,117.22953537733811
825,13.350254855680957,24.590940942824613,37.94119579850557,120.71864795891597
830,13.361089638175626,24.620478963284366,37.98156860145999,120.86365216601708
835,13.396662686623339,22.839248006962958,36.2359106935863,112.11946489601225
840,13.42960424554901,22.738241751043972,36.16784599659298,111.62361812551728
845,13.47607887528667,23.382976373933772,36.85905524922044,114.7886654552848
850,13.523389986989772,21.804715798427498,35.32810578541727,107.04087397203246
855,13.594582575422988,21.496885160489814,35.0914677359128,105.52971185348771
860,13.701597764370744,20.752660416621683,34.454258180992426,101.87626056562448
865,13.812730067908605,21.963596264088853,35.77632633199746,107.82082928347484
870,13.932956535501768,23.097200846614516,37.030157382116286,113.3857734163857
875,14.090647819465529,23.152749992999706,37.24339781246523,113.6584680587942
880,14.27467918150861,22.60592922536518,36.88060840687379,110.97408668850922
885,14.469700663790508,20.326824173435522,34.79652483722603,99.78580068249677
890,14.629874537089357,20.6444046921558,35.27427922924515,101.3448256473056
895,14.75970904476324,22.287929073028558,37.0476381177918,109.41300171294598
900,14.895070238767648,22.651629901127915,37.54670013989556,111.19843450023849
905,15.045224516113095,21.57952397114111,36.62474848725421,105.9353915513062
910,15.16997519945399,19.970667499068934,35.140642698522925,98.03740267320367
915,15.283323009527477,19.41083307244164,34.69415608196912,95.28913634128759
920,15.386952743201636,19.010529452588383,34.39748219579002,93.32401789079391
925,15.479166515059763,18.24090046339323,33.72006697845299,89.54585538690095
930,15.549538272002563,16.73694318797193,32.286481459974496,82.16282399745711
935,15.621550183366669,16.252105719719,31.87365590308567,79.7827229763778
940,15.730477984725018,14.991243443629003,30.721721428354023,73.59306193063408
945,15.840995256337372,13.844293669787868,29.68528892612524,67.96260532074632
950,15.959104102275418,15.206766241069676,31.165870343345095,74.65107840799678
955,16.078028652906088,15.755390770713225,31.83341942361931,77.34431457206435
960,16.16854916387244,14.322869714776651,30.491418878649093,70.31196857735763
965,16.235556026888464,15.678063325999043,31.91361935288751,76.96470874088781
970,16.317799107467742,16.547630296357752,32.865429403825495,81.2334737798305
975,16.365704077437897,16.739603207113912,33.10530728455181,82.1758822173565
980,16.35888842297541,16.155573224611413,32.51446164758683,79.30883821041527
985,16.3227682089062,15.432883486184108,31.755651695090307,75.76110376952624
990,16.281877251155038,13.750787071102193,30.032664322257233,67.50357489182468
995,16.254530464192563,12.32290663199796,28.577437096190522,60.49401000952021
1000,16.22347540052703,12.507754985803137,28.731230386330168,61.401443498977784
1005,16.18468956675005,12.323503091337445,28.508192658087495,60.49693807010938
1010,16.133491715578014,12.765879653842546,28.89937136942056,62.668595536917756
1015,16.08905192384695,14.329172727798058,30.418224651645005,70.34291050885106
1020,16.02283467510137,14.10836289212735,30.13119756722872,69.25893959126094
1025,15.943694270889866,15.235351034618336,31.179045305508204,74.79140315756216
1030,15.838831212231058,15.461884746914686,31.300715959145744,75.9034729855981
1035,15.74744953313601,14.988653231740516,30.736102764876527,73.58034639942149
1040,15.684732710170772,14.410014149632092,30.094746859802864,70.73976669933079
1045,15.626237084212878,13.358827482632332,28.98506456684521,65.57941787462761
1050,15.545558089516549,12.328130500482985,27.87368858999953,60.51965434505392
1055,15.49519732653431,13.16100607799023,28.65620340452454,64.6082987718144
1060,15.474776823704984,14.262971546750759,29.73774837045574,70.01792428372472
1065,15.480107127213504,15.399011698852082,30.879118826065586,75.59482479792523
1070,15.470242719608652,15.748511214873801,31.218753934482454,77.3105423515778
1075,15.457952494817913,15.312950130717416,30.770902625535328,75.17234254437517
1080,15.461373743039386,15.781812743023966,31.24318648606335,77.47402188099477
1085,15.49909675897962,15.030322082369288,30.529418841348907,73.78490169974948
1090,15.521387333814225,13.71454654218085,29.235933875995073,67.32566760219015
1095,15.519561880893088,15.485228981001262,31.00479086189435,76.01807146245672
1100,15.512111305698353,16.43042977095684,31.942541076655196,80.65812820849317
1105,15.481986388015937,16.284139234976564,31.7661256229925,79.93997774187275
1110,15.464577457364703,16.89056900757466,32.35514646493936,82.91698388410565
1115,15.43669444210109,16.486570293535646,31.923264735636735,80.93372595797244
1120,15.417744147156224,16.60028575927172,32.01802990642794,81.49196312781457
1125,15.414172917752138,16.78292705202231,32.19709996977445,82.38856200028485
1130,15.394076515206638,17.361103135146895,32.75517965035353,85.22686880600094
1135,15.360787269755951,17.564002074707957,32.92478934446391,86.22291388264352
1140,15.336468940012363,17.828965278605533,33.1654342186179,87.52363677111484
1145,15.333275364632646,19.5466017194134,34.87987708404604,95.95563411930061
1150,15.378768298839386,19.47158784974822,34.85035614858761,95.58738578975515
1155,15.43878002646714,21.382521903482285,36.82130192994943,104.96829463101434
1160,15.488424538706402,21.614603723080158,37.10302826178656,106.10760050559803
1165,15.569423126174602,22.644907980401758,38.21433110657636,111.1654361215414
1170,15.650474753849082,24.421594553365612,40.07206930721469,119.88731469599828
1175,15.703132620924169,22.849527500792338,38.55266012171651,112.16992764974216
1180,15.746590072068958,21.412334181600478,37.15892425366944,105.11464518813095
1185,15.759678610915675,22.72487451044634,38.48455312136201,111.55799740707306
1190,15.743040954743835,23.42891081403736,39.17195176878119,115.0141608325031
1195,15.679424297129103,23.689657547363005,39.36908184449211,116.29418477221171
1200,15.63401481627317,24.237032137915264,39.87104695418844,118.98128489791124
1205,15.6143052316349,23.776936556793906,39.39124178842881,116.72264353018234
1210,15.589928036902585,24.079094504854616,39.6690225417572,118.20595801760835
1215,15.563572852423418,25.660502047481483,41.2240748999049,125.96919818242405
1220,15.53079639474752,24.912418629997806,40.44321502474533,122.2968043960665
1225,15.542002814492639,24.52498398851565,40.06698680300829,120.39486065991922
1230,15.587781517702554,24.15919038274603,39.746971900448585,118.59915428076131
1235,15.608949444453438,21.56830703732363,37.17725648177707,105.88032683914902
1240,15.609306623370818,22.234357667934027,37.84366429130485,109.15001594077454
1245,15.56569452549668,22.11773050546767,37.68342503096435,108.57748504816013
1250,15.515674976160431,22.048584058280372,37.5642590344408,108.23804030568277
1255,15.451013862436374,21.496291055688054,36.94730491812443,105.52679535148881
1260,15.39151328455943,20.612733497079756,36.00424678163918,101.18934953690736
1265,15.296871997467797,22.034457411232268,37.331329408700064,108.16869160789179
1270,15.206365425578932,24.35960033192363,39.56596575750256,119.58298072963473
1275,15.102831189303943,23.552782078627715,38.655613267931656,115.62225352879629
