#"Step","Potential Energy (kJ/mole)","Kinetic Energy (kJ/mole)","Total Energy (kJ/mole)","Temperature (K)"
5,4.341062438709091,0.5394289619452849,4.8804914006543765,2.648094479480153
10,4.341152281643789,1.308111520974214,5.6492638026180035,6.421610891533039
15,4.34205363094572,1.819231575329927,6.161285206275647,8.930734964904996
20,4.342916668093045,2.8028998901503024,7.145816558243347,13.759631479326101
25,4.34453483526482,2.7954194476103362,7.1399542828751565,13.722909464025479
30,4.346675813278068,3.8111936281309453,8.157869441409014,18.709415917321806
35,4.349044323984438,4.30961192396769,8.658656247952127,21.156186170289917
40,4.352977707771317,4.360795181698989,8.713772889470306,21.40744836012727
45,4.357484101405795,4.984252536403194,9.341736637808989,24.468044093121982
50,4.363531047855775,4.995970869257832,9.359501917113608,24.525570208199618
55,4.369850581194791,4.818629079814349,9.18847966100914,23.654986967891414
60,4.377854152962526,5.443115281465447,9.820969434427973,26.720633382463312
65,4.387307975593625,5.693648959199269,10.080956934792894,27.950520718394092
70,4.399502062719569,5.3168232603492775,9.716325323068848,26.100657023177575
75,4.412181277042576,5.41098347480155,9.823164751844125,26.56289609758423
80,4.4248952169995,5.5241903655408295,9.94908558254033,27.118636637218447
85,4.439450000825577,6.489910592207284,10.929360593032861,31.85942473234701
90,4.453718242950139,7.5541159361495875,12.007834179099728,37.083683152147486
95,4.470910134546938,9.45965701829555,13.930567152842489,46.43811751891994
100,4.490838284518352,9.210911019365044,13.701749303883396,45.217006023190756
105,4.511744352352769,9.754908395212405,14.266652747565175,47.887527165841604
110,4.535475496782836,10.716998993248597,15.252474490031432,52.6104971603185
115,4.560219720268525,11.493202892858298,16.053422613126823,56.42093635901304
120,4.585233432070762,12.369499302474212,16.954732734544976,60.722736685647256
125,4.6126925806542705,14.01181877691897,18.62451135757324,68.78499778141139
130,4.642941803200841,15.696042221188234,20.338984024389077,77.05296839406988
135,4.6742633625723435,14.411264290732664,19.085527653305007,70.74590372937651
140,4.709523600725797,15.218365145899803,19.927888746625598,74.70801824255425
145,4.750260703505887,15.865300272973881,20.61556097647977,77.8838680011744
150,4.793719364286873,14.81785447591088,19.611573840197753,72.74188336847209
155,4.835069657672977,13.743281889789847,18.578351547462823,67.46673143216124
160,4.879704312324316,13.783656286002786,18.663360598327102,67.66493216528144
165,4.927520366382265,14.468690223934711,19.396210590316976,71.0278116494536
170,4.978425330709232,13.721425201658189,18.69985053236742,67.35943542237258
175,5.030919327413895,13.144803085972065,18.17572241338596,64.52875715143193
180,5.080041253852389,13.342929940709169,18.42297119456156,65.501375730112
185,5.131231307593443,13.105119072505099,18.236350380098543,64.33394555546845
190,5.181148197181606,11.90234048022033,17.083488677401935,58.42942137348862
195,5.228130509084729,11.480227662922196,16.708358172006925,56.35724004830723
200,5.280643178616373,13.537981452716313,18.818624631332685,66.45889723636877
205,5.338090017514424,13.515866823791388,18.853956841305813,66.3503349771963
210,5.393939906185999,12.68750234889404,18.081442255080038,62.28383586846723
215,5.454638680269447,11.341325073203958,16.795963753473405,55.67535752629375
220,5.52063673307936,12.173844632014822,17.694481365094184,59.762254232388514
225,5.589610048869194,12.066991745616896,17.65660179448609,59.23770594420156
230,5.651599501784498,11.603435250271751,17.25503475205625,56.96207470663527
235,5.701796477965041,12.398113965697199,18.09991044366224,60.86320806753175
240,5.751358086102322,12.201446795701385,17.952804881803708,59.89775518327648
245,5.809056638135639,12.927589368367222,18.736646006502863,63.462439828790494
250,5.866213304711857,12.77547777459294,18.641691079304795,62.71571338257595
255,5.9259250136691355,13.679152022879851,19.605077036548987,67.15191343291673
260,5.9920227928164485,15.353429660091104,21.34545245290755,75.37105938353017
265,6.06271838055468,16.7547038233892,22.817422203943877,82.25001219816275
270,6.128494250021081,15.613735086231074,21.742229336252155,76.64891691541754
275,6.205482286725394,16.97788573977613,23.183368026501526,83.34562782579378
280,6.289103745541498,17.327220786812482,23.61632453235398,85.06053798970102
285,6.376621290616382,17.45487326690209,23.83149455751847,85.68719293718145
290,6.464816075573994,16.808238029975914,23.27305410554991,82.51281536025921
295,6.556846798557096,17.610808218054327,24.167655016611423,86.4526885120114
300,6.643002104784268,17.17584377835004,23.81884588313431,84.31741767412872
305,6.719670401724394,17.19676172729928,23.916432129023672,84.4201053476544
310,6.800621395468773,16.58462993213558,23.385251327604355,81.41510757808398
315,6.886281095015393,16.81973366620773,23.706014761223123,82.56924824204924
320,6.97630190741817,17.749701736806788,24.72600364422496,87.13452650401985
325,7.078599409318971,18.84766866608266,25.926268075401634,92.52452290610798
330,7.191674540845293,19.268434963481283,26.460109504326574,94.5900940709829
335,7.312711830778453,18.26898597453722,25.581697805315674,89.6837291242427
340,7.435483086888769,19.400579276830058,26.836062363718828,95.2387997419051
345,7.558027416618066,19.48233917034806,27.040366586966126,95.64016477408123
350,7.683981339563776,19.97850770099286,27.662489040556636,98.07589077246682
355,7.798560259713154,19.64921670263444,27.447776962347596,96.45937824456905
360,7.903991587975882,20.443079062795675,28.347070650771556,100.35650406041148
365,8.01293720380357,22.091990861647552,30.104928065451123,108.45112733748395
370,8.118733388871643,19.98978397834448,28.108517367216123,98.13124680618111
375,8.228526735783978,20.348562115309434,28.577088851093414,99.89251375860596
380,8.345624637024718,18.909652571954123,27.25527720897884,92.8288062326148
385,8.454985655003286,19.802207965348963,28.257193620352247,97.2104230470988
390,8.563202613511182,18.533871935201788,27.097074548712968,90.98407282028397
395,8.668440637960416,17.07350316186973,25.741943799830146,83.81502043436836
400,8.770972965267722,18.303275116468157,27.07424808173588,89.85205691874224
405,8.881490595732911,18.056947684684182,26.938438280417095,88.64281833818966
410,8.986590982664056,19.593452895661393,28.580043878325448,96.1856298183303
415,9.09462383565896,20.564611352742126,29.659235188401084,100.95311456668685
420,9.2059476930688,19.19157394498044,28.39752163804924,94.21277795869015
425,9.313321316598305,21.28449267121596,30.597813987814266,104.48706227771986
430,9.419375011520723,20.26329668387857,29.682671695399293,99.47393979578364
435,9.540225242581306,21.957838120891424,31.49806336347273,107.79256215603291
440,9.654201228555024,21.531775621343392,31.185976849898417,105.70099156460981
445,9.768738141572102,21.127602195967086,30.896340337539186,103.71687596830976
450,9.895381456151634,19.921516898643503,29.816898354795136,97.79611894016058
455,10.032347029466056,20.6390518920026,30.671398921468654,101.31854837720067
460,10.162231768359575,17.760489850878713,27.92272161923829,87.18748611007223
465,10.296872954552235,18.124754122182395,28.42162707673463,88.97568487943862
470,10.422072925779887,16.75472157959975,27.176794505379636,82.25009936464147
475,10.534261741855222,16.98074845565482,27.51501019751004,83.35968109814188
480,10.643845188766807,17.421616863828085,28.065462052594892,85.5239349299175
485,10.770785382072935,15.561885770517252,26.332671152590187,76.39438500038752
490,10.922025141336379,17.053511646848488,27.97553678818487,83.7168806897516
495,11.075616401138833,15.987290532780316,27.062906933919148,78.48272671350387
500,11.212499664023293,16.2210226893442,27.433522353367493,79.63013420760981
505,11.335991643362345,17.23570782539069,28.571699468753035,84.61129446546008
510,11.440360612905977,15.014812570195712,26.45517318310169,73.70876442039732
515,11.53174178498743,13.670838660824558,25.20258044581199,67.11110255749551
520,11.631767195778398,13.559608218419626,25.191375414198024,66.56506454088544
525,11.725634233685426,14.159475840669646,25.885110074355072,69.50985662837498
530,11.83209580555905,14.740151601849902,26.572247407408952,72.36043452839017
535,11.952237810861368,15.699193203964501,27.651431014825867,77.06843678876764
540,12.069682915693761,15.567572222371616,27.637255138065377,76.4223001900152
545,12.191254460833045,16.585341508623074,28.776595969456118,81.41860075679924
550,12.317787654628404,16.48596321294151,28.803750867569914,80.93074575690179
555,12.447166855650833,13.832767189433856,26.279934045084687,67.90602102300446
560,12.565432478251099,12.734817331911577,25.300249810162676,62.51610842734802
565,12.660389791622363,11.132364944744863,23.792754736367225,54.64955764968253
570,12.76454118239702,13.292969028983014,26.057510211380034,65.2561141222541
575,12.862703612980912,12.841218280551788,25.7039218935327,63.03843812149257
580,12.945402602971093,11.354713838699205,24.300116441670298,55.74108391196493
585,13.012062893025101,11.581775380582114,24.593838273607215,56.85574489233582
590,13.061571184606276,11.7643031584094,24.825874343015677,57.75178651211307
595,13.105898419787321,11.918852980648914,25.024751400436237,58.510482392292026
600,13.156851345008095,12.083358237853078,25.240209582861173,59.318050198582704
605,13.199261975438139,12.179329264503119,25.378591239941258,59.78917867664131
610,13.219205916052445,12.991531384097073,26.210737300149518,63.77633565346115
615,13.234652153554979,14.67683145527326,27.91148360882824,72.04959150286037
620,13.252903951227866,14.263543266640227,27.51644721786809,70.0207308966245
625,13.288969030078036,13.328078561313633,26.617047591391668,65.42846927056975
630,13.3586471000851,14.112232923756826,27.47088002384193,69.27793784703955
635,13.435194244876293,13.504801785529052,26.939996030405347,66.29601593093659
640,13.518604345576232,12.276870428276139,25.79547477385237,60.26801506758689
645,13.594665659173149,11.82318979732101,25.41785545649416,58.04086513861959
650,13.652583693600167,11.842291975903468,25.494875669503635,58.13463906849504
655,13.696641810973384,11.538291007911525,25.234932818884907,56.642277067402226
660,13.766508330324166,11.169971244873572,24.936479575197737,54.83416960563942
665,13.850895968661414,10.772291062766682,24.623187031428095,52.88192979441709
670,13.922141083212669,11.265412880987657,25.187553964200326,55.30269926855339
675,14.008944714221194,11.972215566873759,25.98116028109495,58.772443058036046
680,14.118399451708992,12.77889625005086,26.89729570175985,62.732494917545274
685,14.254310511066322,12.988423021624952,27.242733532691275,63.76107648481555
690,14.381140686437266,11.53160068525936,25.912741371696626,56.60943380585904
695,14.535078354025332,11.486380141460925,26.021458495486257,56.38744299550305
700,14.689284457546604,11.66148782865054,26.35077228619714,57.24705887168656
705,14.827113195161933,11.219407184279198,26.046520379441134,55.076854087681056
710,14.950792926738913,12.025092082929444,26.975885009668357,59.032017571344085
715,15.06342998110529,11.214292371237926,26.27772235234322,55.05174511294355
720,15.160801215274189,12.927312199725577,28.088113414999768,63.46107918855498
725,15.268401437477744,13.100639051628278,28.36904048910602,64.31195281983726
730,15.359667333084703,13.328964979231543,28.688632312316244,65.43282075808808
735,15.446900000522456,14.023269780249912,29.470169780772366,68.84121155717128
740,15.500413221752536,13.487907795590779,28.988321017343317,66.21308215346457
745,15.548927917877883,13.792649736979012,29.341577654856895,67.70908164475273
750,15.585309680429592,13.958706412018016,29.544016092447606,68.52426546963646
755,15.602680555135523,13.459736745654975,29.0624173007905,66.07478850021477
760,15.62163517101714,13.825069168908165,29.446704339925304,67.86823090216353
765,15.614787857417225,13.840252150367947,29.455040007785172,67.94276521941767
770,15.606266461759942,12.263547904565744,27.869814366325684,60.20261386746776
775,15.618502074118846,11.908867022738722,27.52736909685757,58.46146062690713
780,15.63950217508977,11.262473585731282,26.901975760821053,55.28827006268743
785,15.646513816405324,11.526171476874962,27.17268529328029,56.58278144240636
790,15.611303009608498,12.363157637911248,27.97446064751975,60.69160501103464
795,15.545993903855788,12.671780299710521,28.217774203566307,62.20665523007723
800,15.434522606366803,14.138813756081277,29.57333636244808,69.40842501088134
805,15.268639311674708,15.389612373436265,30.658251685110972,75.54868285245998
810,15.101518921403514,16.19858166704878,31.300100588452295,79.51996966056716
815,14.918715025499086,16.333040036771642,31.25175506227073,80.1800351959789
820,14.69978333764441,16.44678194419873,31.146565281843138,80.73840216993044
825,14.470939745191332,17.658844434671177,32.12978417986251,86.6885016570444
830,14.24340779242943,19.10481186482793,33.34821965725736,93.78685684267974
835,14.017011026908216,18.081414039229948,32.09842506613816,88.76292538281702
840,13.79204993655083,18.12141507690584,31.913465013456673,88.95929327278165
845,13.572340342882562,19.111181168008276,32.68352151089084,93.81812419719698
850,13.360161161765571,19.09491536262938,32.455076524394954,93.73827422163612
855,13.168992080035366,17.98140347394805,31.150395553983415,88.27196652725681
860,13.000051582163819,18.753956265726817,31.754007847890634,92.06448218240223
865,12.832001527858239,19.20768592218126,32.039687450039494,94.29187278097247
870,12.666138924667287,18.297688372562014,30.9638272972293,89.82463120240182
875,12.516847106601785,17.44610021863822,29.96294732524001,85.64412543003094
880,12.38503071768093,16.903076941395536,29.288107659076466,82.9783862055185
885,12.257659977522392,17.467525882439023,29.725185859961414,85.74930551125145
890,12.128242551377577,17.952770242418836,30.08101279379641,88.13140399225915
895,11.998010258481257,18.663946326872644,30.6619565853539,91.62261710100479
900,11.873770821412418,18.339944999460435,30.213715820872853,90.0320719375222
905,11.770101725426171,19.37475088401683,31.144852609443,95.11200635621832
910,11.676813079091332,18.17466086950603,29.851473948597363,89.22068059045854
915,11.606542008183574,18.95194121347224,30.558483221655813,93.03640412974104
920,11.548976582186476,17.989353671580265,29.53833025376674,88.31099460314047
925,11.513476171118109,18.70208924914348,30.21556542026159,91.80986337256648
930,11.492197184254957,20.007608464537007,31.499805648791963,98.21874845480559
935,11.479406609992607,18.669782325384457,30.14918893537706,91.65126642562701
940,11.457094551071783,19.315674893955496,30.77276944502728,94.82199819168244
945,11.428801565567046,18.558641942887995,29.98744350845504,91.10567051940266
950,11.383135597211218,18.308976922669235,29.692112519880453,89.8800474839312
955,11.346396802647474,19.034742647407903,30.38113945005538,93.44288215662962
960,11.312737304209305,18.806213354163088,30.11895065837239,92.32101588222947
965,11.277403620836191,18.298097780399782,29.575501401235975,89.82664101409442
970,11.223024402936895,17.99631337187025,29.219337774807144,88.34516025833682
975,11.188380435128424,19.28478995279311,30.473170387921535,94.67038185670434
980,11.15173703974165,18.535721389328582,29.687458429070233,90.99315191986653
985,11.117951618667618,17.888450505810052,29.00640212447767,87.81565390939167
990,11.088209918559674,16.892960304431668,27.98117022299134,82.92872292752482
995,11.063967519902572,15.666695073574594,26.730662593477167,76.90890119511208
1000,11.062739034598648,15.07128050304529,26.134019537643937,73.98596944978132
1005,11.072246720837523,16.633141320462773,27.705388041300296,81.65325337425683
1010,11.096445503002498,16.676278297496765,27.772723800499264,81.86501580972792
1015,11.12411230714271,15.52364194570832,26.64775425285103,76.20664339121339
1020,11.144606653159919,14.972799151658513,26.117405804818432,73.50251761212206
1025,11.156019194760118,14.82923150853875,25.985250703298867,72.79773401688014
1030,11.16676358057447,14.222813351870284,25.389576932444754,69.82078489805774
1035,11.182611268210646,13.031590445455747,24.21420171366639,63.97298838574032
1040,11.20754364417337,13.30079543894896,24.50833908312233,65.29453451583146
1045,11.23931671879513,12.810200846214757,24.049517565009886,62.88617136825907
1050,11.257360078038783,11.439696770368307,22.69705684840709,56.15827106371044
1055,11.279207086248302,10.740951902931087,22.02015898917939,52.72808366822299
1060,11.311573661956976,10.391974290531536,21.703547952488513,51.014928175931956
1065,11.336554503174538,11.027191786372908,22.363746289547446,54.13325526378558
1070,11.35942183810198,11.773642224409318,23.1330640625113,57.79763263989365
1075,11.37341992214725,10.890976883985642,22.264396806132893,53.46456678674524
1080,11.373829838606774,10.872255320962225,22.246085159569,53.372661325253574
1085,11.352759583607817,10.548518465177212,21.90127804878503,51.783414471475055
1090,11.332331730857726,10.402090305542467,21.734422036400193,51.06458840071518
1095,11.300922175082526,9.315302422267733,20.61622459735026,45.72947071684552
1100,11.272625982185348,9.145338716063007,20.417964698248355,44.89510700287354
1105,11.241469954492917,10.049444210531329,21.290914165024247,49.33342407086233
1110,11.204096748552525,10.772075331304551,21.976172079857076,52.88087075359017
1115,11.167368297879392,11.276693608615677,22.44406190649507,55.35807714898561
1120,11.156851845189792,11.511575991984493,22.668427837174285,56.51113118687612
1125,11.16522597346618,12.818482986196369,23.98370895966255,62.9268289723382
1130,11.181596472745824,12.266905990241975,23.448502462987797,60.21909894477762
1135,11.201654009224276,11.791708619543062,22.993362628767336,57.88632183641963
1140,11.235716324991042,12.519546393983115,23.75526271897416,61.459328345935376
1145,11.278656569079677,13.23933175251136,24.517988321591037,64.99280498288803
1150,11.323069635720787,13.22267405829525,24.54574369401604,64.91103119763284
1155,11.368785694983018,13.757367862195176,25.126153557178192,67.53588045528775
1160,11.416047808183727,12.689093525094385,24.105141333278112,62.29164706365561
1165,11.460413218851471,11.550383567022124,23.010796785873595,56.70164028532825
1170,11.507483800739243,12.26865570818976,23.776139508929003,60.22768843248601
1175,11.566445348768838,11.464682809406968,23.031128158175804,56.28092927583859
1180,11.639640784266287,10.83989132340366,22.479532107669947,53.21378419904276
1185,11.719194410622212,11.583205763678716,23.302400174300928,56.86276674293871
1190,11.807606348597686,11.312534104386666,23.12014045298435,55.534020647923306
1195,11.873509889276216,12.097991350671563,23.971501239947777,59.389885172241705
1200,11.928486685987535,10.444309941798911,22.372796627786446,51.27184754618852
1205,11.990942361061661,12.49092379483492,24.481866155896583,61.31881800603933
1210,12.053436765849408,13.857685797516668,25.911122563366078,68.02834821185702
1215,12.118748067495039,15.183019087179028,27.301767154674067,74.53450196965646
1220,12.201368431717857,15.578317712078295,27.77968614379615,76.47505055007923
1225,12.287004654950934,15.614245434703339,27.901250089654273,76.6514222517405
1230,12.373985104988444,14.523824459251385,26.89780956423983,71.29846946442507
1235,12.444635942954582,14.34361674135259,26.788252684307174,70.41381718100557
1240,12.529802949736448,12.927899878678343,25.45770282841479,63.463964145611996
1245,12.61349007840518,12.152584879009586,24.766074957414766,59.657888618860355
1250,12.687937981884636,12.860719815087272,25.54865779697191,63.134172517655834
1255,12.763787292517227,13.682432596139936,26.44621988865716,67.16801799635773
1260,12.831932062979243,13.203317253087885,26.03524931606713,64.81600728785767
1265,12.896094120650549,13.612780496187234,26.508874616837783,66.82609096911062
1270,12.972742353901587,13.353216475284295,26.325958829185883,65.55187304735493
