#"Step","Potential Energy (kJ/mole)","Kinetic Energy (kJ/mole)","Total Energy (kJ/mole)","Temperature (K)"
5,4.340531192834049,0.031348892070951345,4.371880084905,0.15389390241773063
10,4.3405256008961315,0.05698132609012508,4.397506926986257,0.27972531268727807
15,4.340823932834305,0.06792417560270861,4.408748108437014,0.33344452583363077
20,4.340461629107686,0.08301892741276377,4.42348055652045,0.40754571757013336
25,4.340725612029744,0.11395140484684528,4.454677016876589,0.5593954114286995
30,4.341015176489628,0.15822764856688357,4.499242825056512,0.7767505866946576
35,4.340771320402284,0.1771853704659615,4.517956690868246,0.8698153686140984
40,4.34097767371265,0.1995974391047819,4.540575112817431,0.9798377801326895
45,4.341388634570028,0.1742534159824276,4.515642050552455,0.8554221991151261
50,4.341798723915433,0.17464593831671651,4.51644466223215,0.8573491186908839
55,4.342045297816622,0.16337882682903945,4.505424124645661,0.802038080843362
60,4.342713754056518,0.18133530156792352,4.524049055624442,0.8901876704677079
65,4.3430833279243135,0.177860609845016,4.52094393776933,0.873130165924116
70,4.3435398458657986,0.2241355347168672,4.567675380582665,1.1002970066691953
75,4.344031474581822,0.24404064362606664,4.588072118207888,1.1980125776422808
80,4.344495530796928,0.27773676279215415,4.622232293589082,1.363429181937755
85,4.345395499766612,0.2741965302362819,4.619592030002893,1.3460499328639313
90,4.346045723454559,0.2603872046413321,4.606432928095891,1.278258988266782
95,4.347064286627087,0.2714077709896829,4.61847205761677,1.3323597187922087
100,4.347913181756696,0.3061531318361563,4.654066313592852,1.502927123837147
105,4.348710956873775,0.2984819316804311,4.647192888554207,1.4652686660670884
110,4.349787093316084,0.2808356303988763,4.63062272371496,1.3786417396254402
115,4.35055383328478,0.2864985796127291,4.63705241289751,1.4064415531480616
120,4.35100982685551,0.30231478554304037,4.65332461239855,1.4840844135894828
125,4.352417417256773,0.3458620709084117,4.698279488165185,1.6978610813392645
130,4.353531223496167,0.3490576338633965,4.702588857359563,1.7135483232504334
135,4.354401109872942,0.30832690695664694,4.662728016829589,1.5135983378473183
140,4.355711084506125,0.29991986189672026,4.655630946402845,1.4723275660080584
145,4.356627395691514,0.325030122814816,4.68165751850633,1.5955955920252827
150,4.357903616456877,0.34166502381884656,4.699568640275723,1.677257483809173
155,4.3591843762865015,0.3059484990483471,4.665132875334849,1.501922567178261
160,4.360234322843631,0.3046985584536315,4.664932881297263,1.4957865214297936
165,4.361377918684207,0.29049741660829564,4.651875335292503,1.42607212347212
170,4.363122688762635,0.30136665693750503,4.66448934570014,1.4794299839921152
175,4.364728834204257,0.30206730003971605,4.666796134243973,1.4828694899547912
180,4.3666109667845285,0.2838292505219434,4.650440217306472,1.3933376300592186
185,4.367769107931391,0.26570963834690275,4.633478746278294,1.3043871873577133
190,4.3696933060799354,0.30256747596708417,4.67226078204702,1.4853248885438028
195,4.370892391529771,0.24378920330326,4.614681594833031,1.1967782395223143
200,4.372440615336677,0.22052851360624293,4.5929691289429195,1.0825898879116722
205,4.373308621436174,0.23804953811458848,4.611358159550763,1.1686018219169743
210,4.375049900100612,0.2534440401828754,4.628493940283487,1.2441745086232388
215,4.376223908557826,0.24772790827143248,4.623951816829258,1.216113617520755
220,4.3780979095255255,0.31185115999853147,4.689949069524057,1.5308991423700318
225,4.379731192087206,0.3929735038936431,4.772704695980849,1.9291343988836136
230,4.38190097106771,0.40747690146102844,4.789377872528738,2.0003325913080583
235,4.383693436213516,0.38700385290042216,4.770697289113938,1.8998289648880708
240,4.385784565894631,0.3827428677251767,4.768527433619807,1.8789114908261966
245,4.387747993985286,0.3963898689292133,4.784137862914499,1.945905573642117
250,4.390254381143341,0.37772407054880647,4.767978451692148,1.854273864680857
255,4.392278821795629,0.34300428945756883,4.735283111253198,1.6838320324423581
260,4.39432404046363,0.353275708716828,4.747599749180458,1.734255147543155
265,4.396156923253667,0.3612616540071694,4.757418577260836,1.7734587111792663
270,4.398934419945008,0.3887780007604698,4.787712420705478,1.9085383807433698
275,4.40130154834248,0.4132121739614377,4.814513722303918,2.028487444899677
280,4.40403951822561,0.4449242439536643,4.848963762179275,2.18416421311855
285,4.406824683961081,0.4825218261184555,4.889346510079537,2.368733371981184
290,4.4097566582742935,0.4717546920703137,4.881511350344607,2.315876758332028
295,4.412516474933646,0.4300236511007038,4.84254012603435,2.11101616127385
300,4.415049047569612,0.4219253416058396,4.8369743891754515,2.0712609939036435
305,4.417321340106739,0.36265833820284643,4.779979678309585,1.780315131522015
310,4.419201877826359,0.42276463012321475,4.841966507949574,2.075381119900471
315,4.4210672976950365,0.4272903405477951,4.848357638242832,2.0975981487152353
320,4.423283442355158,0.4188775048659328,4.842160947221091,2.0562989503081375
325,4.424882608183169,0.42729032222846947,4.852172930411639,2.0975980587843854
330,4.4266118972669135,0.4033190825944868,4.8299309798614,1.9799215678667843
335,4.4288793913979205,0.3729193241859498,4.80179871558387,1.8306870289408923
340,4.430703822286472,0.33138275153326163,4.762086573819734,1.6267810904435325
345,4.432106524824689,0.31237096186483154,4.7444774866895205,1.5334508860650844
350,4.4338302065252675,0.3069255445430944,4.740755751068362,1.5067189518060182
355,4.435338749600788,0.28671950579139244,4.722058255392181,1.4075260952015347
360,4.436940714323693,0.3001747031286053,4.737115417452299,1.473578599428409
365,4.438205553819091,0.30957270910467777,4.747778262923768,1.5197140676717389
370,4.4401106783720685,0.3345390392208367,4.774649717592905,1.642275527321704
375,4.441450015005475,0.35088537311434176,4.792335388119817,1.7225208229896083
380,4.442766365890677,0.37708192826949033,4.819848294160167,1.8511215433468933
385,4.4443843156556095,0.36303111968387697,4.807415435339487,1.782145141869271
390,4.445572197262989,0.38221095356593765,4.827783150828927,1.876300287038475
395,4.447080821638806,0.4199065434149035,4.866987365053709,2.0613505724733154
400,4.448292886279112,0.4008730863098298,4.849165972588942,1.967914001133862
405,4.449165366111283,0.3658280945516615,4.8149934606629445,1.795875686999653
410,4.449723800434429,0.39297608040640225,4.842699880840831,1.9291470471648426
415,4.4499844231136345,0.4616537247762609,4.911638147889896,2.266290403842771
420,4.450023924599036,0.40599011679460895,4.856014041393645,1.9930338614565446
425,4.4503562047801095,0.4129177988680176,4.863274003648127,2.0270423369896915
430,4.4507371034594625,0.436937709196869,4.887674812656331,2.144957755750413
435,4.450820919788196,0.37418744222263967,4.825008362010836,1.8369123090225876
440,4.451496643146666,0.3999085529404435,4.85140519608711,1.963179039404081
445,4.452108442461361,0.3986061613272252,4.850714603788586,1.956785507939535
450,4.453090873761324,0.39311109177550335,4.846201965536827,1.929809827412856
455,4.453709922985467,0.42387200979946643,4.877581932784933,2.0808173241354004
460,4.455332758878967,0.456178282865804,4.911511041744771,2.239411076779005
465,4.456285352263172,0.43918095818884384,4.895466310452016,2.1559700218518216
470,4.457654037492334,0.4529147987726018,4.910568836264936,2.223390405252739
475,4.459585081147508,0.4794043188637017,4.938989400011209,2.3534293109584272
480,4.46135680723204,0.4846706262320743,4.946027433464114,2.379281981936905
485,4.463639644070457,0.46079365352500234,4.92443329759546,2.2620682539526276
490,4.465838449261161,0.4748443214152468,4.940682770676408,2.3310439647468497
495,4.468528809399571,0.46599883623794386,4.934527645637515,2.2876208597250707
500,4.470951826484461,0.4482784103178366,4.9192302368022975,2.2006300502515654
505,4.473637450382168,0.4239784815615164,4.897615931943685,2.081340001457523
510,4.475842756137234,0.37964314568347685,4.85548590182071,1.863694738657482
515,4.478039011399848,0.3907525054901625,4.868791516890011,1.9182313624764067
520,4.480451630469498,0.3676270043940475,4.848078634863546,1.8047066611570772
525,4.482708135494714,0.33812705336828286,4.820835188862997,1.6598893395684269
530,4.484728064732402,0.3437433365122652,4.828471401244667,1.6874600660921641
535,4.486832201938912,0.34673094101417196,4.833563142953085,1.7021264254211834
540,4.488823511132016,0.34472566753600314,4.833549178668019,1.692282397751187
545,4.490396157103963,0.3910530731969389,4.881449230300902,1.9197068703582123
550,4.492768935797638,0.40219803164348444,4.894966967441123,1.9744182503885015
555,4.494507189910316,0.43317839862189067,4.927685588532207,2.126503037367567
560,4.496699651136977,0.4018697375171046,4.8985693886540815,1.9728066315748265
565,4.498469720668005,0.42295719045304864,4.921426911121054,2.0763264120193092
570,4.500150628385226,0.4176740605925508,4.917824688977777,2.0503911582511214
575,4.501640012449169,0.4003465149033211,4.90198652735249,1.965329025292744
580,4.503407467034951,0.44750800059129303,4.950915467626245,2.1968480550534566
585,4.504535198223386,0.4710134133408009,4.975548611564187,2.312237769234557
590,4.505485965028271,0.5194646679670187,5.0249506329952895,2.55008836486607
595,4.506924136558337,0.480929095428575,4.987853231986912,2.360914545695029
600,4.50869562406145,0.5074990293767269,5.016194653438177,2.491348208645795
605,4.509728382540396,0.5887589855066364,5.098487368047032,2.890259013238893
610,4.511068681652299,0.6036144500513112,5.11468313170361,2.9631855270638154
615,4.5127605921836915,0.6108265187504591,5.12358711093415,2.998590076420923
620,4.513470394018767,0.6933853120057903,5.206855706024557,3.403876963249519
625,4.514256372315229,0.6786887732262221,5.192945145541451,3.331730627114182
630,4.5145100591264375,0.7018403965057178,5.216350455632155,3.4453835640576296
635,4.5155734505267535,0.6263176125089289,5.141891063035683,3.074636938485912
640,4.5167273669042745,0.6073781611436134,5.124105528047888,2.9816618478937946
645,4.5178888134956265,0.5886640022567533,5.10655281575238,2.889792733826027
650,4.518945813505101,0.6183095407841583,5.137255354289259,3.0353247546365827
655,4.5192683092378445,0.6210184039586432,5.140286713196487,3.0486227533056787
660,4.520604012285974,0.605263841867079,5.125867854153053,2.971282506777481
665,4.520940433435476,0.5710285451522065,5.0919689785876825,2.803219042207303
670,4.521556795544734,0.5842233021615558,5.10578009770629,2.8679930266602995
675,4.522137622835349,0.6144408395480682,5.136578462383418,3.0163330298520914
680,4.5230622218112195,0.587343689844233,5.1104059116554525,2.88331122790507
685,4.524219669449302,0.6281106004728737,5.152330269922175,3.0834388417281375
690,4.524729807794535,0.5574539873721012,5.082183795166636,2.7365805892231503
695,4.525547349999408,0.5610660353505299,5.086613385349938,2.754312385226096
700,4.5263225119846915,0.6453557220028345,5.171678233987526,3.168096348727337
705,4.527254581639812,0.752132784101714,5.279387365741526,3.6922724101302697
710,4.528135379672659,0.7490516443736791,5.277187024046339,3.677146879838213
715,4.5292763221674255,0.6764349594361281,5.205711281603554,3.320666497680343
720,4.5306147763957085,0.7039795702272209,5.234594346622929,3.455884917381584
725,4.531447577717596,0.6523177982176387,5.183765375935235,3.202273667504694
730,4.532774504816443,0.6269322363606454,5.1597067411770885,3.0776541699352915
735,4.533886905549019,0.5949757885657698,5.128862694114789,2.9207777340015655
740,4.5352315162388654,0.6345632633697136,5.169794779608579,3.115115414920367
745,4.536188371428359,0.6436805507905804,5.179868922218939,3.159872816154378
750,4.537227916928116,0.6611924049770376,5.198420321905154,3.2458397324085375
755,4.538091936705536,0.6479976869739017,5.186089623679438,3.18106593943977
760,4.539460132500492,0.6767803675426713,5.216240500043163,3.322362130218882
765,4.540371401415753,0.7039936416754229,5.244365043091175,3.455953995104381
770,4.541693407964509,0.6965986179263957,5.238292025890905,3.419651306619127
775,4.542817908459817,0.7318011082521318,5.274619016711949,3.592462792230444
780,4.543770192662318,0.7407298717048608,5.28450006436718,3.6362947161273187
785,4.545067887645046,0.8256770080458767,5.3707448956909225,4.053306146105209
790,4.545816560618464,0.8134628733649378,5.359279433983402,3.993346105206437
795,4.54713751005296,0.7698849767811178,5.317022486834078,3.7794191648456117
800,4.548316572357081,0.7663045115197225,5.314621083876803,3.761842410608168
805,4.54986959316111,0.6851489607597601,5.23501855392087,3.3634441392739234
810,4.550982433123515,0.7228690360575921,5.273851469181107,3.548614625488745
815,4.5519637028948345,0.7706388936392988,5.322602596534133,3.7831201954001017
820,4.552629911388605,0.848210725142651,5.400840636531256,4.163925738406944
825,4.553722065548718,0.7933580514784094,5.347080117027128,3.8946501292680002
830,4.55450503118191,0.8973278396965672,5.451832870878477,4.405045086966157
835,4.555959728472973,0.8376041249525824,5.393563853425555,4.11185719668815
840,4.556947927245716,0.8652010710818826,5.422148998327598,4.247332534222814
845,4.5579590283996385,0.8495765584241087,5.407535586823747,4.170630709455357
850,4.558883479313458,0.7699365961460924,5.32882007545955,3.77967256791639
855,4.5602546298329045,0.7170752470741553,5.27732987690706,3.5201725103917276
860,4.561653261501761,0.6911888005623524,5.252842062064114,3.393094135040765
865,4.563370701258645,0.6944076125409783,5.257778313799623,3.4088955080340604
870,4.565190189861729,0.6056106408260237,5.170800830687753,2.972984967107677
875,4.5671404311095944,0.5823833843496575,5.149523815459252,2.8589607415141436
880,4.568639813620156,0.5794239395517742,5.148063753171931,2.844432620140497
885,4.571038035696348,0.5554271572546736,5.126465192951022,2.7266307385042556
890,4.573591483663318,0.6292020894329572,5.202793573096275,3.0887970373266596
895,4.576484831354431,0.6925842655425571,5.269069096896988,3.3999445701695383
900,4.579257792345854,0.7127085425181278,5.291966334863981,3.4987360524999653
905,4.582446823253524,0.7288218307070368,5.3112686539605605,3.5778373105144556
910,4.585588679095391,0.6660917975534649,5.251680476648856,3.269891193026552
915,4.588578784257228,0.6523846073304459,5.240963391587674,3.202601638109323
920,4.591442857886004,0.6828704855411294,5.274313343427133,3.3522589451636
925,4.594805864709622,0.6512085221038105,5.246014386813433,3.1968281535251437
930,4.598206075650943,0.6070778567392782,5.205283932390221,2.980187632582077
935,4.601530945061578,0.5595101463548744,5.161041091416452,2.7466744173920716
940,4.604767156573715,0.5474552998848169,5.1522224564585315,2.6874963334545283
945,4.607204796762855,0.5354279708312017,5.142632767594057,2.628453334437727
950,4.61008201578721,0.5341934167227588,5.144275432509969,2.6223928220258643
955,4.613238012322517,0.5932512380635326,5.20648925038605,2.91231179504254
960,4.616798264389889,0.6450973392755992,5.261895603665488,3.166827929858766
965,4.620510865427351,0.6679406851547021,5.288451550582053,3.2789675114955483
970,4.624053661624289,0.6450718910988332,5.269125552723122,3.1667030029802317
975,4.627599695131236,0.5828538530453425,5.210453548176579,2.8612703052263306
980,4.630893776193867,0.558248199311351,5.189141975505218,2.740479431147173
985,4.633227791367048,0.5546390576416119,5.18786684900866,2.722761902416732
990,4.635352364052049,0.5358519326705563,5.171204296722605,2.630534592741427
995,4.636688717161649,0.49642927159100303,5.133117988752652,2.4370059939158955
1000,4.637673368559872,0.4859725806337631,5.123645949193635,2.385673367099492
1005,4.638645109036076,0.5215128748618436,5.1601579838979195,2.5601431556794134
1010,4.6390741767865995,0.5832038084952463,5.2222779852818455,2.8629882609912793
1015,4.639921889619309,0.5740890252290878,5.214010914848397,2.8182431528277676
1020,4.640545185066284,0.6207266411427687,5.261271826209053,3.047190469248759
1025,4.640639167945967,0.5890871504016187,5.229726318347585,2.8918699976466047
1030,4.640384623626659,0.5481847954702046,5.188569419096863,2.6910774782738645
1035,4.640697848722833,0.5384949757789967,5.179192824501829,2.6435094761055855
1040,4.6404690315206425,0.5638573340456814,5.204326365566324,2.7680150656282665
1045,4.639060436058105,0.5729558418817999,5.212016277939905,2.812680276568083
1050,4.637522685334841,0.5895430961224826,5.227065781457323,2.89410826706026
1055,4.636326592127256,0.5557857481991046,5.192112340326361,2.7283910865154466
1060,4.635339780565673,0.5549918177179468,5.19033159828362,2.7244936262888704
1065,4.634054580087274,0.5684662086922886,5.202520788779562,2.7906403534220177
1070,4.63390617616664,0.5679260599216454,5.201832236088285,2.787988725351326
1075,4.633441392185888,0.592006246545474,5.225447638731362,2.906200044657315
1080,4.633453705818944,0.6014457202912418,5.234899426110186,2.9525390810806154
1085,4.633765154559161,0.6022512412229412,5.236016395782102,2.9564934396390554
1090,4.633819463720431,0.6450828382099683,5.278902301930399,3.1667567431139805
1095,4.633453366424715,0.6949983488439666,5.328451715268681,3.411795473837028
1100,4.633935155191207,0.6937122085306313,5.327647363721838,3.40548172113955
1105,4.6340739838995155,0.6636072130878745,5.29768119698739,3.25769419421617
1110,4.634536092024111,0.614986726537831,5.249522818561942,3.019012827241535
1115,4.634792379598394,0.6505604006638782,5.285352780262272,3.1936464800737805
1120,4.634731303410291,0.6415947173851476,5.276326020795438,3.1496333141704222
1125,4.6352392508688345,0.6023964456490072,5.237635696517842,2.9572062583161896
1130,4.635510756617654,0.6066356198833266,5.242146376500981,2.978016660944505
1135,4.635631771634004,0.5603345152364928,5.1959662868704966,2.750721301854108
1140,4.634808112457036,0.5977605485999904,5.232568661057027,2.934448315660183
1145,4.634702747259131,0.6333516583671646,5.2680544056262955,3.1091675612734466
1150,4.634389960226798,0.6673079608532905,5.3016979210800885,3.275861423673421
1155,4.633997053032967,0.6673519806207857,5.301349033653753,3.276077519788972
1160,4.633972349521409,0.6194447992772912,5.2534171487987,3.04089781793227
1165,4.634730567940428,0.6210304720282007,5.255761039968629,3.048681996302677
1170,4.63578980646582,0.5860492138791386,5.221839020344959,2.8769565549104557
1175,4.636929112428645,0.5825863176956161,5.219515430124261,2.859956955494196
1180,4.638426396854848,0.5912010787455082,5.229627475600356,2.9022474196472388
1185,4.639679117418718,0.5778278557293276,5.217506973148046,2.836597333092196
1190,4.641040637083426,0.646171518084439,5.2872121551678655,3.1721011487148782
1195,4.642693128796617,0.6499376517288313,5.292630780525449,3.190589362022401
1200,4.644514647471376,0.6615257077055998,5.306040355176976,3.24747593880042
1205,4.646201723261479,0.6695874261097923,5.3157891493712714,3.2870514779488555
1210,4.6487575090536835,0.629373509173934,5.278131018227618,3.0896385488171028
1215,4.651358896165815,0.5636685686712726,5.215027464837088,2.7670884032108716
1220,4.654126090360389,0.563580807071443,5.217706897431832,2.7666575753829017
1225,4.656089978481112,0.5925423040968905,5.2486322825780025,2.9088315886468528
1230,4.658688325983357,0.6100791366364359,5.268767462619794,2.9949211253822727
1235,4.6606089331952925,0.5933550064592804,5.2539639396545725,2.9128212013505244
1240,4.6625488554124255,0.6245327881037731,5.287081643516198,3.0658751107244027
1245,4.664277383566231,0.5737698236970378,5.238047207263269,2.8166761701952168
1250,4.666790818667492,0.5032314075646929,5.170022226232184,2.470398154870035
1255,4.668901841474344,0.49742879545175667,5.1663306369261015,2.4419127264135825
1260,4.670995576526964,0.49699624208629245,5.167991818613257,2.4397892917076747
1265,4.673310917354853,0.5073408462688567,5.18065176362371,2.490571676712494
1270,4.675438160294019,0.5557572778028139,5.231195438096833,2.7282513233500167
1275,4.67726170180191,0.5264373499782563,5.203699051780166,2.5843177482394486
