#"Step","Potential Energy (kJ/mole)","Kinetic Energy (kJ/mole)","Total Energy (kJ/mole)","Temperature (K)"
5,4.340661762684642,0.09384534049568681,4.434507103180329,0.46069333614454755
10,4.340887078773884,0.15731905092023288,4.4982061296941165,0.7722902173376107
15,4.340426108423769,0.1721313863846723,4.5125574948084415,0.8450050074929986
20,4.340546136324503,0.21622921263201667,4.556775348956519,1.0614843189143834
25,4.341248932339251,0.2785751962562365,4.6198241285954875,1.3675451104182008
30,4.341027998495899,0.39570327243322345,4.7367312709291225,1.9425350234512178
35,4.341362571684,0.4563958102093621,4.797758381893362,2.240478933713373
40,4.341919403466602,0.5742694204478702,4.916188823914473,2.819128725566131
45,4.342115795985953,0.5633145694991601,4.905430365485113,2.7653505965309506
50,4.342950928964464,0.7016602891380269,5.0446112181024905,3.444499404400395
55,4.343521471763515,0.7657094499405754,5.109230921704091,3.758921211722207
60,4.344122779010524,0.8609360979365733,5.205058876947097,4.226395482937144
65,4.345279196884842,0.9409371951786991,5.286216392063541,4.619126461257726
70,4.346485114926386,0.8282368006779636,5.17472191560435,4.065872347061862
75,4.347791561711154,0.8739770656462159,5.22176862735737,4.2904145049682345
80,4.349093543155095,0.9131665511175294,5.262260094272625,4.482798428434284
85,4.3504264235657475,1.032185124709002,5.382611548274749,5.067068925417999
90,4.352375253800303,1.0807081369456064,5.433083390745909,5.305271784174651
95,4.355011163910732,0.930018231841229,5.285029395751962,4.565524507014614
100,4.356766985197475,0.8856929139612048,5.24245989915868,4.347928423267073
105,4.359893583553973,0.9588796377691154,5.318773221323088,4.707207166084417
110,4.362999924117501,0.8567576231145082,5.2197575472320095,4.205883057966383
115,4.365560004095562,0.709265357696084,5.074825361791646,3.4818332175349997
120,4.368679876050084,0.8267572474810406,5.195437123531125,4.058609116999575
125,4.371253698990585,0.78455002076385,5.155803719754434,3.851410890821841
130,4.374233213876286,0.8638064888562589,5.238039702732545,4.240486432597982
135,4.377885262049237,0.9386195872387912,5.316504849288028,4.6077491618833335
140,4.38150599381148,1.0227088037334697,5.40421479754495,5.0205490033682185
145,4.385875538058354,0.983465261803915,5.369340799862269,4.827899712970194
150,4.39113105876901,1.2031571753655028,5.594288234134512,5.906382672785542
155,4.397545479047483,1.403822273914723,5.801367752962205,6.891461667758803
160,4.405461569067149,1.42446711140942,5.829928680476569,6.9928086180640365
165,4.413265743935135,1.2623731903062563,5.675638934241391,6.197078229242019
170,4.420994073145282,1.2523680563304185,5.6733621294757,6.147962327210487
175,4.430040004560987,1.3640590712326102,5.794099075793597,6.69626132640295
180,4.439866869945753,1.3548543010887983,5.794721171034551,6.6510744663670875
185,4.449411260793366,1.1454719703754839,5.59488323116885,5.623201969378586
190,4.460030479113842,1.4489585984532949,5.908989077567137,7.113039039881327
195,4.4718329910760275,1.4258256525859765,5.8976586436620035,6.999477791659782
200,4.483249649095303,1.4135271604278274,5.89677680952313,6.939103634008921
205,4.4938237400679535,1.3966059693097752,5.890429709377729,6.856036324044041
210,4.50392305017511,1.2220094540810433,5.7259325042561535,5.998929826746674
215,4.5133953025953115,1.174683517218652,5.688078819813963,5.766603494675842
220,4.522907326102795,1.2144685781794955,5.73737590428229,5.961911139849846
225,4.532759533490592,1.3458790455356415,5.878638579026234,6.607014309499484
230,4.543061065033724,1.4056376592535242,5.948698724287248,6.900373521279743
235,4.553186955393432,1.3210156220077072,5.874202577401139,6.484958025484133
240,4.563306770944714,1.3225714901297405,5.885878261074454,6.4925958908480865
245,4.5731005140182095,1.2544552776053692,5.8275557916235785,6.158208642342916
250,4.5827550006135205,1.232417401457527,5.815172402071047,6.050023167918041
255,4.592075074628739,1.1841680150636318,5.776243089692371,5.813163557549292
260,4.599737314043469,1.2682120259979528,5.867949340041422,6.22574148177858
265,4.607554782236004,1.1984276737428115,5.805982455978816,5.883165218734546
270,4.616512440134984,1.5324231824483947,6.1489356225833784,7.522772516764888
275,4.626031418452245,1.1993893576610413,5.825420776113286,5.887886192309427
280,4.634429293893883,1.174712702643151,5.809141996537035,5.766746767964726
285,4.6424029068430865,1.1536885837365678,5.796091490579654,5.6635378986973315
290,4.6493886151153045,1.0820327353204766,5.731421350435781,5.311774330184367
295,4.657001864800758,1.0372191704868456,5.694221035287604,5.091781408013827
300,4.663935901394962,1.0979205724733325,5.761856473868294,5.389768833304177
305,4.669240783543264,0.9714320998382725,5.640672883381537,4.768828079780539
310,4.674857777254832,0.9351797187030902,5.610037495957923,4.590862606799828
315,4.6794155103408,0.8947144565203659,5.574129966861166,4.392215806282546
320,4.6845853910046475,1.0870658659766863,5.771651256981334,5.336482320384127
325,4.689908849266278,1.0899593025035845,5.779868151769862,5.350686402541626
330,4.69736226894877,1.1324677190955208,5.829829988044291,5.5593631908672165
335,4.705645634529847,1.149208470411785,5.854854104941632,5.641544709232644
340,4.714236195291529,1.1149439886979502,5.82918018398948,5.473337973462572
345,4.7227220589340435,1.1858114497585184,5.908533508692562,5.8212312933401575
350,4.732038888529471,1.2650482218712136,5.997087110400685,6.2102101461751635
355,4.741477925912372,1.4026002682305139,6.144078194142886,6.8854627564386215
360,4.751920689643471,1.270539077204181,6.0224597668476525,6.237165138807409
365,4.761842273548352,1.2058863617176092,5.967728635265961,5.9197804393541436
370,4.770513829113396,1.3435723241873285,6.1140861533007245,6.595690453164187
375,4.780416173206596,1.5815531567270622,6.361969329933658,7.763954994611781
380,4.790631705956925,1.566033507411394,6.356665213368319,7.687767951320514
385,4.800221054632138,1.7475112293235258,6.547732283955664,8.578654773212913
390,4.810226516959258,1.7629556272301201,6.573182144189378,8.654472402077072
395,4.818968451908183,1.5635899620014615,6.382558413909644,7.675772416102926
400,4.827308063792817,1.50327337483474,6.330581438627557,7.3796740736607935
405,4.834908180978849,1.6842123070092814,6.519120487988131,8.26791593907075
410,4.842476946063969,1.891920321968253,6.734397268032222,9.287569102988977
415,4.851082954965999,2.3406609458749013,7.191743900840899,11.490468192056069
420,4.859366320890216,2.306028244696032,7.165394565586248,11.320453841194142
425,4.867814007709278,2.3378867656888773,7.205700773398155,11.476849547611764
430,4.876830148683045,2.0615302300739873,6.938360378757032,10.120195997363048
435,4.885157604480713,1.9948986067184322,6.880056211199145,9.793096700858193
440,4.892028810206824,1.867752511920915,6.759781322127739,9.168927634172233
445,4.896903731706917,1.7428360135395358,6.6397397452464535,8.555703812138601
450,4.900544168391389,1.650610825548893,6.551154993940282,8.10296391788759
455,4.9047209364844,1.6481189391320965,6.552839875616497,8.090731073288342
460,4.909031775138518,1.6420163893943698,6.551048164532888,8.060773230066594
465,4.9125622948364995,1.762984612127675,6.675546906964175,8.654614690965172
470,4.917453312292191,1.800731845626268,6.718185157918459,8.839918498685847
475,4.92171690732531,1.6266959331292081,6.548412840454518,7.985564039383565
480,4.926130295807936,1.4842036249142743,6.41033392072221,7.286059338353766
485,4.93016013854136,1.390589933109681,6.320750071651041,6.826503181825699
490,4.933284687048068,1.2107486314648628,6.14403331851293,5.943649661408912
495,4.937001992997205,1.2527984019177798,6.189800394914984,6.150074923779366
500,4.939395320639756,1.299211129521136,6.2386064501608915,6.377918247765612
505,4.9401058990946165,1.2878539195659455,6.227959818660562,6.322164910243316
510,4.939276713482723,1.2181925600667884,6.157469273549512,5.980192427235422
515,4.937886466278592,1.1796452266851922,6.117531692963785,5.79096087326328
520,4.937174415850237,1.0612314145848947,5.998405830435131,5.2096591927116815
525,4.936937307941894,1.1359225623976061,6.072859870339499,5.576323258125617
530,4.935952007111488,1.116835716351514,6.052787723463002,5.4826245967428955
535,4.935176235502861,1.1460116108358318,6.081187846338693,5.625851102118508
540,4.934412941449033,1.184425317069683,6.118838258518716,5.814426671082029
545,4.9342028185727465,1.2132545710101605,6.147457389582907,5.955951493798266
550,4.93351533946729,1.2593727403623898,6.19288807982968,6.182348810740541
555,4.934147393182916,1.2817165725339417,6.215863965716857,6.2920362446716815
560,4.934275799781119,1.3548535704523068,6.289129370233426,6.65107087962148
565,4.936177917816561,1.3700642661428197,6.306242183959381,6.725741247971457
570,4.937584588534084,1.5080900700475395,6.445674658581623,7.4033195671403345
575,4.9385916118846405,1.4427039017584484,6.381295513643089,7.082334296612229
580,4.9384194682776785,1.4014788406477023,6.339898308925381,6.879957590048462
585,4.938401290895481,1.3466252984963596,6.2850265893918404,6.610677717445633
590,4.93849592581902,1.2904310932711418,6.228927019090162,6.334816436102775
595,4.939128259461756,1.3913136359079576,6.330441895369714,6.8300558894482
600,4.939050915463326,1.2692214909314585,6.208272406394785,6.230697015697273
605,4.9402182469595015,1.4252884959912864,6.365506742950788,6.996840852389992
610,4.9416887369518365,1.4696820890974513,6.411370826049287,7.214772103994995
615,4.942926056778073,1.2912354678999147,6.234161524677988,6.338765167380024
620,4.944937021525665,1.1773788850700002,6.122315906595666,5.779835243860357
625,4.946149641539505,1.3293646000602106,6.275514241599716,6.525943742325153
630,4.948132290179668,1.4081545967046272,6.356286886884295,6.912729343157432
635,4.950638993869601,1.333488880883813,6.284127874753414,6.546190125169379
640,4.953033665517172,1.4353388235341638,6.388372489051335,7.046178612801085
645,4.955112709446654,1.3828524917967722,6.337965201243426,6.788519541584867
650,4.9561118067430305,1.2328085000334703,6.188920306776501,6.051943098164561
655,4.958007950280264,1.2097145218773875,6.167722472157651,5.938573145161258
660,4.960462569129873,1.2972349588204843,6.2576975279503575,6.368217087664688
665,4.963429436743466,1.3726434511105432,6.336072887854009,6.738402647259246
670,4.965901007553479,1.3056093618737532,6.271510369427233,6.409327617611637
675,4.967963576170031,1.2341788715780346,6.202142447748066,6.0586703478637824
680,4.96829219564584,1.0513041632008362,6.019596358846676,5.160925621767073
685,4.9695196910712305,1.2160844898553482,6.185604180926578,5.969843763216455
690,4.9711660774806035,1.206745471076604,6.177911548557208,5.923997867247928
695,4.973106524502643,1.2777486221361087,6.250855146638751,6.272557298814825
700,4.974717176971587,1.191581586852148,6.166298763823734,5.849557299656878
705,4.979003782748597,1.1118716236689388,6.090875406417536,5.458255518781359
710,4.98292783095776,1.106520393102463,6.089448224060223,5.431985953887386
715,4.98625852889468,1.0741886697324399,6.06044719862712,5.273267263924051
720,4.989102670538996,1.16975681074863,6.158859481287626,5.74241794824497
725,4.99248511636656,1.1544200188830698,6.1469051352496304,5.66712856495775
730,4.995523927519088,1.141074785207131,6.136598712726219,5.601615880030368
735,4.999196945351261,1.2201675839279533,6.219364529279214,5.989887957421142
740,5.0029709673793405,1.2864260419221751,6.289397009301515,6.3151553590835015
745,5.00663012925781,1.3844438778934904,6.391074007151301,6.796331767169204
750,5.01098888725377,1.3503816497589223,6.361370537012693,6.629117908356979
755,5.016180775222,1.337133343062835,6.3533141182848345,6.564081044748741
760,5.020864348485855,1.2659932996333558,6.286857648119211,6.214849598969065
765,5.026050294107336,1.2859192029972026,6.311969497104539,6.312667251373516
770,5.030391144756523,1.3515253006422001,6.381916445398723,6.634732170482504
775,5.036386548786424,1.2993984858662588,6.335785034652682,6.378837993159753
780,5.041879511845169,1.329993583520195,6.3718730953653635,6.529031466095235
785,5.049113870649837,1.3909279505859544,6.440041821235791,6.82816253324365
790,5.0565631206444905,1.5344321831797598,6.590995303824251,7.532634841781354
795,5.064298470749989,1.6905275029961429,6.754825973746132,8.298917677593161
800,5.074080705852153,1.6134261797059275,6.687506885558081,7.92042189229244
805,5.083516253562335,1.5098367258390912,6.593352979401426,7.411894022509732
810,5.093049667130869,1.480476220439915,6.573525887570784,7.267761249249047
815,5.100801911401261,1.3386424018683827,6.439444313269643,6.571489119906166
820,5.108415433476662,1.287468283585713,6.395883717062374,6.320271796260967
825,5.1173221832621065,1.3502148813676755,6.4675370646297825,6.6282992306674835
830,5.126382706458022,1.3964835831050382,6.52286628956306,6.855435521610371
835,5.1359099886331325,1.2958917177439122,6.431801706377045,6.361623023329221
840,5.145684843103928,1.2440604470092598,6.389745290113188,6.107179692363251
845,5.155471402882363,1.3697242297693417,6.525195632651705,6.724071985646011
850,5.165859049683525,1.3804282628449462,6.546287312528471,6.776618832210317
855,5.175189566524047,1.3060352689286259,6.4812248354526725,6.411418425114284
860,5.18398138844111,1.3424562551759378,6.526437643617047,6.590211592375688
865,5.192556713223389,1.208210527387317,6.400767240610707,5.931189931082499
870,5.200198053551934,1.2912511203463264,6.4914491738982605,6.338842006333542
875,5.206253674536125,1.1584707969390229,6.364724471475148,5.687014117577849
880,5.213553629772641,1.2300097658429254,6.443563395615566,6.038203916395775
885,5.220503526767684,1.3921191963816817,6.612622723149365,6.834010442121204
890,5.228656753675028,1.4022512998496872,6.630908053524715,6.883749646264767
895,5.235600863970929,1.5591531123583087,6.794753976329238,7.653991611075426
900,5.240866675392537,1.502895687451455,6.7437623628439916,7.377819979896455
905,5.24606982019891,1.4973166777077378,6.743386497906648,7.350432231099975
910,5.249308982338724,1.549333406270203,6.798642388608927,7.605785987505909
915,5.25040546829471,1.3395356836202843,6.589941151914995,6.575874302465331
920,5.251001486383627,1.3787479289530276,6.629749415336654,6.768369955682021
925,5.2506454419877135,1.4474115792680484,6.698057021255762,7.105444614566587
930,5.251427167261212,1.4205740083692613,6.672001175630473,6.973697103117723
935,5.252959401896747,1.3299350507703382,6.582894452667085,6.5287441247348355
940,5.254413764708346,1.20173598796686,6.456149752675206,5.899405964506697
945,5.255859812443123,1.2127829111250297,6.468642723568152,5.953636082453826
950,5.258748524897658,1.2922003159540913,6.55094884085175,6.3435016739194365
955,5.261654729616763,1.3398297297726012,6.601484459389364,6.577317795580448
960,5.265486194588603,1.2777025694535047,6.543188764042108,6.2723312229769075
965,5.27112477603896,1.2077848555328927,6.478909631571852,5.929100278195294
970,5.276389312712691,1.097327961558639,6.37371727427133,5.386859664901316
975,5.2829016710698475,1.2534849082596187,6.536386579329466,6.153445031397236
980,5.289432834578517,1.303618504273891,6.593051338852408,6.399554358495897
985,5.29458339750997,1.2435115204952083,6.538094918005179,6.104484973736616
990,5.3001915675053475,1.3538702324024001,6.654061799907748,6.646243604400606
995,5.306531693840842,1.5860949665976911,6.892626660438533,7.786251056732525
1000,5.310245921926316,1.4408611254841452,6.751107047410461,7.073287979074325
1005,5.313494151512285,1.4891602023003159,6.802654353812601,7.3103915231993115
1010,5.315697006499541,1.6930269787830248,7.008723985282566,8.311187778940646
1015,5.314997340024445,1.6075873963157226,6.922584736340168,7.8917588965075565
1020,5.3136823564819045,1.7004530880247553,7.0141354445066595,8.347643068282409
1025,5.312406496382395,1.7478038674948262,7.060210363877221,8.580091354450804
1030,5.310784956044904,1.7596505027546947,7.070435458799598,8.638247315003872
1035,5.308243937691747,1.8588315928474592,7.167075530539207,9.125134218881518
1040,5.3060370473028655,1.832117215867651,7.138154263170517,8.993991474991997
1045,5.303575539882126,1.9885056044887333,7.29208114437086,9.761713006051151
1050,5.302140304978691,1.8318103202033897,7.133950625182081,8.992484902724582
1055,5.302513073055629,1.572817452759485,6.875330525815114,7.72107081322209
1060,5.302478801233086,1.4241718663713885,6.726650667604474,6.991359239535146
1065,5.301814071772312,1.366833264940682,6.6686473367129935,6.709880037227933
1070,5.299242198191449,1.2730036662304625,6.572245864421911,6.249263978608572
1075,5.29721983432167,1.1906585524025333,6.487878386724203,5.84502605902497
1080,5.295433934389548,1.1470775482510895,6.442511482640637,5.631083863397465
1085,5.293479565309195,0.9321134111908064,6.225592976500001,4.5758098888916425
1090,5.290103495339627,1.0040510948101122,6.2941545901497395,4.928957006117055
1095,5.284732418358113,1.0251291485305316,6.309861566888644,5.032430645155535
1100,5.275845541715621,1.0738702888670129,6.349715830582634,5.271704310001315
1105,5.266921514262387,1.060969175847129,6.327890690109516,5.208371844417887
1110,5.258361320357429,1.0969814987668776,6.355342819124306,5.385158854839319
1115,5.251074490981326,0.9523081092205283,6.203382600201854,4.674947073099227
1120,5.24418174378422,0.9574921931590357,6.201673936943256,4.700396103513199
1125,5.2371849911648685,1.0363245949373765,6.273509586102245,5.0873898741119685
1130,5.233122628948788,1.0077946574532612,6.240917286402049,4.9473344168017945
1135,5.230460461013888,1.1305713912716868,6.361031852285575,5.550053985029491
1140,5.22845486690457,1.1945237020557837,6.422978568960353,5.864000348841049
1145,5.227237389386096,1.203422028075304,6.430659417461401,5.907682853250772
1150,5.226163867550805,1.2411237842219438,6.4672876517727484,6.092763409471908
1155,5.224849694858318,1.4153698174606668,6.6402195123189856,6.948149366182145
1160,5.225378363599014,1.3578283447192994,6.583206708318313,6.665674254430492
1165,5.226656579346667,1.2505316222709666,6.477188201617634,6.138947144048598
1170,5.229732117183186,1.3638203403123148,6.593552457495501,6.69508937962828
1175,5.233316925040341,1.3351365890609774,6.568453514101318,6.554278839783456
1180,5.237275532005095,1.28865913333307,6.525934665338165,6.326117760909387
1185,5.240841763135191,1.1753246790187817,6.416166442153973,5.769751002768945
1190,5.244794327004934,1.032463244315928,6.277257571320862,5.068434234008551
1195,5.250075107654006,1.1009486609149535,6.35102376856896,5.40463393112302
1200,5.255184685145771,1.0245489062325994,6.2797335913783705,5.0295821951569035
1205,5.26150267887456,1.0523532647977947,6.313855943672355,5.1660757348372
1210,5.268122893142093,1.1004210396478098,6.368543932789903,5.402043801442662
1215,5.274347733259588,1.2766490414654088,6.550996774724997,6.267159380443289
1220,5.282120736707476,1.3428053986611095,6.624926135368586,6.5919255621490125
1225,5.289236339946683,1.372116820184608,6.661353160131291,6.735817379233103
1230,5.294956023022363,1.5593114298508788,6.854267452873241,7.654768802712613
1235,5.301011127262921,1.286692909157476,6.587704036420397,6.31646542899522
1240,5.30553854162378,1.2534975813680305,6.55903612299181,6.153507244572261
1245,5.310395402380343,1.3564268683825622,6.666822270762905,6.658794309132315
1250,5.31555918057501,1.2284375485616266,6.543996729136637,6.030485791866203
1255,5.319990140405498,1.2545397748928293,6.574529915298327,6.158623445433293
1260,5.323658397729856,1.235176805941876,6.558835203671732,6.063569277410023
1265,5.325285976573565,1.020106777763288,6.345392754336853,5.007775476002809
1270,5.325291199529501,0.9491199122590861,6.274411111788588,4.65929599136523
1275,5.325474189537779,0.9352463866494986,6.2607205761872775,4.591189884408737
1280,5.324918063435787,0.8936627352116744,6.218580798647461,4.387052832864407
1285,5.323149203400517,1.005279451190057,6.3284286545905735,4.934987093446507
1290,5.318776916016129,1.135287574647031,6.454064490663161,5.5732060588733345
