#"Step","Potential Energy (kJ/mole)","Kinetic Energy (kJ/mole)","Total Energy (kJ/mole)","Temperature (K)"
5,4.340504273332293,0.030649190045495257,4.371153463377788,0.1504590162666246
10,4.340299910249802,0.05530611373625817,4.39560602398606,0.2715015781472667
15,4.340530120828549,0.08802982405748874,4.428559944886038,0.4321445594533909
20,4.3406629759444595,0.09213526152989347,4.432798237474353,0.45229843896946453
25,4.340508335785743,0.13919033221585655,4.4796986680016,0.6832950700470636
30,4.340666821261968,0.1698668106696712,4.510533631931639,0.8338880470175477
35,4.34071251326975,0.20600998053092986,4.54672249380068,1.0113173942208604
40,4.340713839721721,0.2321745279567515,4.572888367678472,1.1397609863975866
45,4.340815279158967,0.29785739507949077,4.638672674238458,1.4622027722388828
50,4.340972672777993,0.32687282904919424,4.667845501827188,1.6046415657322997
55,4.341683606880295,0.31516980565976016,4.656853412540055,1.5471906058894522
60,4.3417097638307816,0.3160994116149659,4.657809175445747,1.5517541065016458
65,4.341835544429891,0.35132083172279005,4.693156376152681,1.7246585197363968
70,4.342144300025925,0.33377538677064106,4.675919686796567,1.638526704065511
75,4.342412639751611,0.3639009369233217,4.706313576674933,1.7864151354966504
80,4.342917755534414,0.3884097417495581,4.731327497283972,1.9067305715180412
85,4.343668883875998,0.3828604225379762,4.726529306413974,1.8794885756191377
90,4.343887643745246,0.38665384375631545,4.7305414875015614,1.8981107455345267
95,4.344703804290047,0.3859711009728257,4.730674905262873,1.8947591134876598
100,4.345490200923018,0.4293255477809729,4.774815748703991,2.1075891232808965
105,4.3463550117067795,0.4744771712180611,4.820832182924841,2.3292415987656065
110,4.347540330346106,0.5152013919059483,4.862741722252054,2.529159644685551
115,4.348575480124175,0.515289337852654,4.863864817976829,2.5295913774852217
120,4.349758903347412,0.5791698616288184,4.928928764976231,2.8431853338570345
125,4.350895530924875,0.5294634738564943,4.880359004781369,2.599173201879325
130,4.352221709925184,0.5670591172269184,4.919280827152102,2.783732843064892
135,4.353107361138709,0.5696934324820687,4.922800793620778,2.7966648807871857
140,4.355139308626013,0.5774144982042073,4.932553806830221,2.8345681321082976
145,4.356674220979507,0.5238406293484883,4.8805148503279945,2.571570265160966
150,4.358112495627685,0.5254600906354432,4.883572586263128,2.5795203138165888
155,4.35959064686093,0.5083387079414131,4.867929354802343,2.4954702494121364
160,4.361272331726116,0.5532942630599061,4.914566594786023,2.7161602118159758
165,4.363127336489283,0.5350661515841045,4.898193488073388,2.626677138463094
170,4.365034154537844,0.5374865732786523,4.902520727816497,2.638559157745544
175,4.367597284452849,0.4994385010616335,4.867035785514482,2.4517785117279325
180,4.369860028755741,0.45625846147665133,4.826118490232393,2.2398046791840214
185,4.372027194929828,0.41402044893577905,4.786047643865607,2.0324553232459497
190,4.374331378156024,0.423095060680646,4.79742643883667,2.0770032266035106
195,4.376733276630489,0.49687491993374955,4.873608196564239,2.4391937127806016
200,4.378839126790242,0.5003077326343062,4.879146859424548,2.456045630276191
205,4.381538749275732,0.5730428990588669,4.954581648334599,2.813107646335473
210,4.3843228100518665,0.5924533103557219,4.976776120407589,2.908394712150925
215,4.387055052614241,0.5633456226138486,4.95040067522809,2.765503038441523
220,4.390189153294543,0.5486034792794169,4.93879263257396,2.69313282635867
225,4.393051392099377,0.5521454901396992,4.945196882239076,2.710520805253143
230,4.396469066164912,0.5497755376320675,4.94624460379698,2.6988865427369864
235,4.399738760132492,0.5393931712461938,4.939131931378686,2.647918780436598
240,4.403386487339518,0.5000256935756918,4.90341218091521,2.4546610808233376
245,4.4063985046328495,0.5060018495141809,4.912400354147031,2.483998448049888
250,4.409983398145183,0.5312749299060855,4.941258328051268,2.608065766244881
255,4.413282559633152,0.5164690212295663,4.929751580862718,2.5353825256406166
260,4.416891720379107,0.5121286473962615,4.929020367775369,2.5140753271071787
265,4.419887003163705,0.5120228682267379,4.931909871390443,2.513556049770179
270,4.423187386110222,0.5622708541990142,4.985458240309237,2.7602269251683706
275,4.427012846900027,0.591104776615436,5.018117623515463,2.901774665759337
280,4.430392205537194,0.5922763356675265,5.0226685412047205,2.9075259310363033
285,4.434266413798278,0.5937160804218451,5.027982494220123,2.9145937386712935
290,4.437773164863606,0.6348893172518537,5.07266248211546,3.116716036218479
295,4.441285856501543,0.6009834867230184,5.042269343224562,2.95026994418476
300,4.444863760313604,0.6429342036268423,5.087797963940446,3.156208945759019
305,4.448540296839764,0.6831537393463512,5.131694036186115,3.353649457892458
310,4.4523556892565,0.6652551674908621,5.117610856747362,3.265784117570025
315,4.456049444966502,0.6126711415994727,5.068720586565974,3.0076454589231534
320,4.460047524566397,0.5852830512191547,5.0453305757855516,2.873195408858953
325,4.463355964055647,0.528233783981362,4.991589748037009,2.593136568328788
330,4.466845316455901,0.4471811711979063,4.914026487653807,2.1952436267164273
335,4.46953961428514,0.3888820649178161,4.858421679202956,1.909049238965714
340,4.472120091873554,0.3530481888107895,4.825168280684344,1.7331382364211048
345,4.473292361271951,0.33224455901224365,4.805536920284195,1.63101176359693
350,4.474652324427132,0.3873332129971101,4.861985537424243,1.901445816624498
355,4.476220081832301,0.3905192379172071,4.866739319749508,1.9170862356557083
360,4.478409468509044,0.41675954942809856,4.8951690179371425,2.0459017590218402
365,4.48031521855453,0.43866503508882004,4.91898025364335,2.1534373192915393
370,4.482501811586319,0.4535312435846183,4.936033055170937,2.2264165759235137
375,4.484884331088281,0.4692064759658823,4.954090807054164,2.3033673873588176
380,4.487618090353952,0.5278552609027838,5.015473351256736,2.591278372077841
385,4.489777493265954,0.519104128662399,5.008881621928353,2.5483184522185245
390,4.492835355551179,0.5397781894770335,5.032613545028212,2.649808861843997
395,4.496014389964755,0.6052341060008488,5.101248495965605,2.9711365313316636
400,4.499206611364727,0.5519112631604166,5.0511178745251435,2.709370968639724
405,4.502338939051103,0.6200265348525528,5.122365473903655,3.0437535985336894
410,4.505019201410184,0.6584086204625491,5.163427821872734,3.2321739396444724
415,4.507262068627747,0.593865771158348,5.101127839786095,2.9153285809599483
420,4.509423674066584,0.6109644797414311,5.120388153808015,2.999267336568875
425,4.511622259910668,0.6494188471251188,5.161041107035787,3.1880425139590978
430,4.514392919894984,0.685055797680725,5.199448717575709,3.362986795206978
435,4.516751776378085,0.6537044515136412,5.170456227891726,3.209080845459795
440,4.519262814727842,0.6801162299998373,5.19937904472768,3.3387381121929876
445,4.521156300397642,0.7036280926224187,5.224784393020061,3.4541594892518424
450,4.52282268622455,0.5926798021174915,5.115502488342042,2.9095065760408922
455,4.52467058130639,0.615473570147001,5.140144151453391,3.0214027765486025
460,4.526727693451286,0.591379724838415,5.118107418289701,2.903124405804417
465,4.528501467024239,0.596699074025317,5.125200541049556,2.9292374627776003
470,4.53003415745028,0.6872803306902893,5.21731448814057,3.373907183242513
475,4.531816770096155,0.7646865776935101,5.296503347789665,3.753899860364098
480,4.533743113179345,0.7586915276665238,5.292434640845869,3.7244697407364464
485,4.535733473077135,0.7481833288490245,5.28391680192616,3.6728842582337062
490,4.538875161527664,0.7936611803520327,5.332536341879697,3.8961382100968796
495,4.541741961038401,0.8121684921209591,5.35391045315936,3.9869918972044007
500,4.543922555392322,0.8162945705673115,5.360217125959633,4.007247104704358
505,4.545663799518886,0.8142051912078803,5.359868990726766,3.9969901953843663
510,4.54743690701019,0.7402782428104439,5.287715149820634,3.634077638316431
515,4.5496050166712685,0.7761907104492456,5.325795727120514,3.8103744521839564
520,4.552422418964569,0.7993323203395648,5.351754739304134,3.9239782327000152
525,4.556169964637132,0.8772243316326546,5.433394296269786,4.306355560674775
530,4.560100104838155,0.9598014219957247,5.5199015268338805,4.711732269284203
535,4.564383454337391,0.9577842516522647,5.522167705989656,4.7018298390709194
540,4.568758025407412,0.913031437270445,5.481789462677857,4.482135145114689
545,4.572549443125008,0.8828671189119681,5.455416562036977,4.334056397851454
550,4.576501573923545,0.8397063960411262,5.41620796996467,4.122177392407467
555,4.57989444493346,0.8779368456767045,5.457831290610165,4.3098533419207
560,4.583603045092024,0.8600067167189664,5.443609761810991,4.221833085577532
565,4.5873452719163925,0.8856522117156804,5.4729974836320725,4.3477286130987665
570,4.591068319769077,0.8216409818000867,5.412709301569164,4.03349301115233
575,4.594918914427759,0.7976328827552984,5.392551797183057,3.915635574810665
580,4.598526511270246,0.7654531437726688,5.363979655042915,3.7576629868285294
585,4.602457665355584,0.7381404707381544,5.340598136093739,3.6235831657864392
590,4.606443007982654,0.7950415265866078,5.401484534569262,3.9029144262465794
595,4.610165460770414,0.7983066729833478,5.408472133753762,3.9189432581371046
600,4.61396141921219,0.7731890334073805,5.38715045261957,3.7956390097726325
605,4.617397183967245,0.7184346812436433,5.3358318652108885,3.5268460677521927
610,4.621593915107381,0.6898882584612109,5.311482173568592,3.386709682960282
615,4.625938496631119,0.6264804922379305,5.252418988869049,3.075436526460634
620,4.630407108862492,0.6500543534684969,5.280461462330989,3.1911622590196997
625,4.634320577226597,0.6256426105453465,5.259963187771944,3.0713233066650423
630,4.6381641295816225,0.5802899714825596,5.218454101064182,2.84868403142308
635,4.643379194504984,0.6268546894331407,5.270233883938125,3.0772734866477545
640,4.647889112318774,0.666380987417136,5.31427009973591,3.27131084628126
645,4.653123586069726,0.6653104532635362,5.318434039333262,3.266055519292476
650,4.657802104650238,0.5901852947559254,5.247987399406163,2.8972608650405705
655,4.662814021914744,0.5984083370781745,5.261222358992918,2.9376283545790507
660,4.667772050546505,0.6070547839478951,5.2748268344944,2.9800743666364236
665,4.672699918664279,0.6474319671181419,5.320131885782421,3.1782887811248592
670,4.678408819725338,0.628187458646584,5.306596278371923,3.0838161438751546
675,4.68354373527524,0.501699920989247,5.185243656264487,2.462879980222513
680,4.68730834172833,0.43779545787595076,5.125103799604281,2.149168503971396
685,4.691460096427395,0.43065142697019887,5.122111523397594,2.1140979568978113
690,4.694366215576925,0.37789026692182953,5.072256482498754,1.8550897342929091
695,4.697392375556309,0.38406255873345724,5.081454934289766,1.8853899462303054
700,4.700053889087327,0.4050101273407962,5.105064016428123,1.988223024727957
705,4.702419702455539,0.43835035639311754,5.1407700588486565,2.151892539578758
710,4.704661745497979,0.5082238310675027,5.212885576565482,2.4949063108083855
715,4.707490086359443,0.4911065652459241,5.198596651605367,2.410876456418561
720,4.710010100505748,0.46809773097264806,5.178107831478396,2.2979244806873873
725,4.7129891385639855,0.466445031976747,5.179434170540732,2.289811265795281
730,4.71611365003587,0.5219830804474483,5.238096730483318,2.5624514277658257
735,4.719495895999407,0.5190312499517736,5.238527145951181,2.5479606855339503
740,4.723210774348887,0.5399918150873423,5.263202589436229,2.650857564897119
745,4.726919222078821,0.5861405823614267,5.313059804440248,2.8774050891765315
750,4.730724103918041,0.550534715609475,5.281258819527515,2.7026134004935027
755,4.733621655581274,0.5638220373580397,5.297443692939313,2.767841791721447
760,4.736729462376383,0.5971327223674051,5.333862184743788,2.9313662728002923
765,4.738586808080111,0.6509660812800461,5.389552889360157,3.195637994575027
770,4.740709392294434,0.6166817760908282,5.357391168385262,3.0273339439786677
775,4.743064784263128,0.6647633913909498,5.407828175654077,3.2633699543211288
780,4.745484113017819,0.6438373826981861,5.389321495716006,3.160642714951134
785,4.748296426435367,0.6284075021804272,5.376703928615794,3.08489635296351
790,4.750557227875501,0.6886209080682094,5.439178135943711,3.3804881712951094
795,4.75396247787132,0.6962935896811333,5.450256067552453,3.4181539016421083
800,4.757952585050635,0.7026614351445477,5.460614020195183,3.4494141001250385
805,4.761527695999307,0.759231826090552,5.520759522089859,3.7271221034660655
810,4.76611633568439,0.7426372526632825,5.508753588347672,3.645658182575333
815,4.770615622863614,0.763545319707173,5.534160942570788,3.748297345136915
820,4.775085760799604,0.6457836473666868,5.420869408166291,3.1701970642498405
825,4.779996265757264,0.623355648154241,5.403351913911505,3.060096448431799
830,4.785327431772978,0.5940428204534829,5.379370252226461,2.9161977283252503
835,4.789100624194986,0.5510012060709544,5.34010183026594,2.704903434775902
840,4.793519787337402,0.6200424815384363,5.413562268875839,3.0438318819293424
845,4.7978814456266266,0.6922034103892027,5.490084856015829,3.3980749256005067
850,4.802675494009281,0.6938631543088954,5.496538648318177,3.406222724515936
855,4.8067380063648075,0.6372757432996886,5.444013749664496,3.1284311684949704
860,4.8106147612536345,0.5213857189830833,5.332000480236718,2.55951893858257
865,4.814064459872924,0.5271537923508349,5.341218252223759,2.5878348139247045
870,4.817870801779899,0.5189268539307031,5.336797655710602,2.547448198169387
875,4.822017888058611,0.561206909015017,5.383224797073629,2.755003943891925
880,4.826246431938235,0.5680987866405525,5.3943452185787875,2.788836652887784
885,4.82950590442036,0.5808751117329122,5.410381016153273,2.8515565258125033
890,4.8329079985107315,0.5849307246001636,5.417838723110895,2.871465812859213
895,4.836740090102875,0.5908623294317653,5.42760241953464,2.9005844755879964
900,4.84038630544517,0.687518946248186,5.5279052516933564,3.3750785636951046
905,4.843087085920968,0.6626072498011011,5.505694335722069,3.252785304545437
910,4.846056501500411,0.6949882334734866,5.541044734973897,3.4117458167762926
915,4.8470057806200675,0.7104307568596369,5.557436537479704,3.4875542434885674
920,4.848751071308701,0.7261632846600717,5.574914355968773,3.5647863221414475
925,4.849892956367873,0.716956532592277,5.56684948896015,3.5195897327022196
930,4.850132927143873,0.6975859127915828,5.547718839935456,3.424498006122789
935,4.8506212899048045,0.7086678303233752,5.55928912022818,3.478899913896088
940,4.8502771011064185,0.7299829846092984,5.580260085715717,3.5835374961836077
945,4.851394204934742,0.6945208511877096,5.5459150561224515,3.409451404466079
950,4.852131412521755,0.7312783899624657,5.583409802484221,3.589896731609234
955,4.8529795121168755,0.7865956514412322,5.639575163558108,3.861453034803685
960,4.854897506818666,0.8600623213583122,5.714959828176979,4.222106052638762
965,4.856483169700779,0.800840530145158,5.657323699845937,3.931382140057319
970,4.858466700205865,0.9025535246173239,5.761020224823189,4.430698339509839
975,4.861270353831957,0.8828111569027466,5.744081510734704,4.333781676436523
980,4.864709829745426,0.9002638608264317,5.764973690571857,4.419458219916219
985,4.868425026772993,0.8858686993191737,5.7542937260921665,4.3487913658764805
990,4.872606821476429,0.8694221570881482,5.742028978564577,4.268054140475273
995,4.876189650592229,0.8315724464633723,5.707762097055602,4.0822472653791655
1000,4.880333850321168,0.7881338230653273,5.668467673386496,3.869004026822301
1005,4.883450902689021,0.7665461383379936,5.649997041027015,3.7630285735484206
1010,4.887077902972855,0.7133280916352528,5.600405994608108,3.501777462421504
1015,4.891000169039315,0.7547669815002906,5.645767150539606,3.7052038692864047
1020,4.893833556755861,0.7655717548122613,5.659405311568122,3.7582452567126254
1025,4.896862620558232,0.7735778861944673,5.6704405067526995,3.797547915284679
1030,4.899087651215568,0.7906178000212516,5.68970545123682,3.8811980433252677
1035,4.901584386473053,0.7958075059269338,5.697391892399987,3.906674672369069
1040,4.9039739752187055,0.8121059865430119,5.716079961761717,3.9866850529532107
1045,4.905762997836372,0.8319020792424233,5.737665077078796,4.083865455732374
1050,4.907600402706187,0.8222558951137054,5.729856297819892,4.03651166359042
1055,4.9103594007964695,0.8566207903574755,5.766980191153945,4.205211336397702
1060,4.913455661497306,0.9153506755838696,5.828806337081176,4.4935204481066355
1065,4.917138975769353,0.8701409483749397,5.7872799241442925,4.271582737144587
1070,4.9209255998600385,0.8245553823734627,5.745480982233501,4.047800007279345
1075,4.925651154396788,0.848672925949274,5.774324080346062,4.1661947144738125
1080,4.930146782151209,0.8832946938471506,5.81344147599836,4.336155393095124
1085,4.933763132392681,0.8071162635788176,5.740879395971499,3.9621901541476867
1090,4.937413596908729,0.756229756466534,5.693643353375263,3.7123847338415112
1095,4.940170881355336,0.7040836410488801,5.644254522404217,3.456395808319506
1100,4.942625256534023,0.640202303345804,5.582827559879827,3.142797856323592
1105,4.944232564710747,0.6662050571922687,5.610437621903015,3.270447192510122
1110,4.946332066098306,0.7387588174169714,5.685090883515278,3.6266186728542746
1115,4.94883875643011,0.7509154114387462,5.699754167868856,3.686296242635203
1120,4.9524714652599195,0.8373164305152753,5.789787895775195,4.11044488458599
1125,4.956149928744407,0.893073793550857,5.849223722295264,4.3841616770853
1130,4.959335241079027,0.8264984476043188,5.785833688683346,4.0573386503150175
1135,4.962939299076179,0.7930504187327512,5.75598971780893,3.8931399386164878
1140,4.966148060803866,0.8539430908693644,5.820091151673231,4.19206632244331
1145,4.969621480967739,0.7896612279953795,5.759282708963118,3.8765021643872846
1150,4.973752437909086,0.7967825541096789,5.770534992018765,3.9114612520525975
1155,4.977627031686521,0.8905584953078309,5.868185526994352,4.3718139021946385
1160,4.9829210565297295,0.8377668413296901,5.82068789785942,4.112655982757007
1165,4.986914353674597,0.7794683702461052,5.766382723920702,3.826464713230337
1170,4.991845106353967,0.7718239105503897,5.763669016904357,3.788937526247585
1175,4.996794501287627,0.8171250510749971,5.813919552362624,4.011323991565952
1180,5.000588479260361,0.7612661260110253,5.761854605271386,3.73710862397024
1185,5.004306002990691,0.810713218245004,5.815019221235695,3.9798478560258346
1190,5.009144342095554,0.7769243978934424,5.7860687399889965,3.8139761751311916
1195,5.013716716096317,0.8000787232059422,5.813795439302259,3.927642376543524
1200,5.017731903850484,0.8195846971594534,5.837316601009937,4.02339856612019
1205,5.0220285771481645,0.8218809961432304,5.843909573291395,4.034671258339471
1210,5.027184148845318,0.8171412572598702,5.844325406105188,4.011403548860282
1215,5.030713724148786,0.837744559722138,5.868458283870924,4.112546600788082
1220,5.034394208378519,0.7834774718582804,5.817871680236799,3.8461456732748096
1225,5.037447575213379,0.7552008854758504,5.79264846068923,3.7073339342316776
1230,5.041523365860382,0.7905341259157649,5.832057491776147,3.8807872812927364
1235,5.044650769690653,0.8246620832668318,5.869312852957485,4.048323809423128
1240,5.046387016054875,0.7488943694698206,5.795281385524696,3.676374806341887
1245,5.047104910765035,0.7895940608617737,5.8366989716268085,3.87617243623353
1250,5.0477558584077755,0.7541839674790972,5.801939825886873,3.702341812704544
1255,5.048836327441593,0.7744042494776369,5.823240576919229,3.8016045904033358
1260,5.050452302387041,0.6501268483677017,5.700579150754742,3.1915181415471827
1265,5.050577830283819,0.5870871221790334,5.637664952462853,2.8820517193029027
1270,5.050851399011106,0.6066152882844631,5.657466687295569,2.977916851704535
1275,5.050981409923567,0.5836129068872193,5.634594316810786,2.8649965535928503
1280,5.051542866856502,0.6392054579187757,5.690748324775277,3.137904272444281
