#"Step","Potential Energy (kJ/mole)","Kinetic Energy (kJ/mole)","Total Energy (kJ/mole)","Temperature (K)"
5,4.340524017820369,0.09064446252539973,4.431168480345768,0.44498000245174785
10,4.340777511734978,0.20679502241794484,4.5475725341529225,1.0151712197174898
15,4.340065040061568,0.28834137261023246,4.628406412671801,1.4154879527813247
20,4.3407173863469,0.5275760410471603,4.86829342739406,2.5899076622895283
25,4.3411514001564155,0.5370997011255886,4.878251101282004,2.6366599753043594
30,4.3414017933758196,0.5518161027971441,4.893217896172963,2.7089038197648496
35,4.342196191991842,0.6544071663218586,4.996603358313701,3.2125305215720656
40,4.343140146600475,0.8507217712573563,5.193861917857831,4.176252639302461
45,4.3443965528809905,0.9906124261261893,5.3350089790071795,4.862985642204508
50,4.345665186244184,1.1648330972708705,5.510498283515054,5.718247094622321
55,4.3470847048560755,1.1488820544033824,5.495966759259458,5.639942310231396
60,4.349389480326085,1.3063635282757395,5.655753008601825,6.413029873194111
65,4.351104680212075,1.3658348052028229,5.7169394854148985,6.704978528583917
70,4.352903382709284,1.2861556153615914,5.639058998070876,6.313827816195177
75,4.355931022596643,1.4626918431456715,5.818622865742315,7.180456498009801
80,4.3582546124116694,1.2547096481949136,5.612964260606583,6.1594573653471185
85,4.361681658104206,1.4767802530725977,5.838461911176804,7.249617487100207
90,4.365296261273902,1.6068462722427164,5.972142533516618,7.8881206666296855
95,4.368189465253073,1.414573223580807,5.78276268883388,6.9442388311451735
100,4.371973949673175,1.1631455647906255,5.535119514463801,5.709962879720762
105,4.3757428736767405,1.2986896463585451,5.674432520035285,6.375358250469548
110,4.380013647742511,1.4447411032830277,5.824754751025539,7.092335061293778
115,4.385083289505053,1.5079423252722959,5.893025614777349,7.402594277711521
120,4.390565053911155,1.5473629656308014,5.937928019541957,7.596112956676185
125,4.3967946149441035,1.5587813235578574,5.955575938501961,7.6521664738665205
130,4.402212776642175,1.550814153681354,5.953026930323529,7.613055080049314
135,4.408532314252282,1.5019325966057466,5.910464910858028,7.37309209961624
140,4.415066691199241,1.3731799157213882,5.788246606920629,6.741036189531971
145,4.421649265511361,1.2589959688795611,5.680645234390922,6.180499213195563
150,4.428655934568397,1.483150100930627,5.911806035499024,7.280887515478265
155,4.436041734685814,1.651935493769826,6.08797722845564,8.109466806776512
160,4.444085086856551,1.5522690130690198,5.99635409992557,7.620197086475896
165,4.451383133990203,1.2811306590112754,5.732513793001479,6.28915995423442
170,4.458851660123451,1.4527352586287672,5.911586918752218,7.13157892866571
175,4.467248222113742,1.2436788575842717,5.710927079698013,6.105306443203443
180,4.475207521707814,1.3499484077904793,5.825155929498293,6.626991093250917
185,4.483338734614415,1.199899270641452,5.683238005255867,5.89038939077243
190,4.490663884430299,1.1291417159488748,5.619805600379174,5.543035608937606
195,4.497396581345494,0.917449412177359,5.414845993522853,4.503823292742674
200,4.503467088617168,0.9954099687994323,5.498877057416601,4.886537114528633
205,4.510100782924384,1.0470712982285546,5.557172081152939,5.1401461917471085
210,4.516376345090051,0.9410229279756112,5.457399273065662,4.619547329550364
215,4.521953739119552,1.0796948025848105,5.601648541704362,5.300297254966924
220,4.528323561315016,0.9966636750323727,5.524987236347389,4.892691646058358
225,4.534279190440291,1.0236644388559852,5.557943629296276,5.025240282982136
230,4.5410752551324665,1.350436367779987,5.891511622912454,6.6293865229470965
235,4.549032933838911,1.3622724995898279,5.911305433428739,6.687490921329803
240,4.556757945805906,1.3465160987914295,5.903274044597335,6.610141648461233
245,4.565635833399154,1.3348571008714556,5.900492934270609,6.552906812725281
250,4.57555652273984,1.2971659622875906,5.87272248502743,6.367878378861958
255,4.585363418075152,1.3686273977895993,5.953990815864752,6.7186875607905145
260,4.594628401097493,1.4215646175566155,6.016193018654109,6.978560072860569
265,4.605399643529194,1.5887561819646017,6.194155825493795,7.799315148983728
270,4.614876044865467,1.6067167704532255,6.221592815318692,7.8874849332930905
275,4.62530628322887,1.6011984151265115,6.226504698355381,7.860394941269335
280,4.635886307368484,1.6446178211964544,6.280504128564938,8.073543840619283
285,4.647051363330843,1.612961342289972,6.260012705620815,7.918139972926064
290,4.656664118908098,1.541314971238188,6.197979090146285,7.566422929456936
295,4.66669870477806,1.5865675075313728,6.253266212309433,7.788570793205885
300,4.676313026213509,1.4591123748878616,6.1354254011013705,7.162884638132648
305,4.686049552744301,1.4121990439224905,6.098248596666791,6.9325838172508325
310,4.695693571926933,1.413482227198732,6.109175799125665,6.938883053646525
315,4.705722386196501,1.4474535240207849,6.153175910217286,7.105650524289647
320,4.715408313993545,1.3702252823086007,6.085633596302146,6.726531687584069
325,4.724603148681439,1.3296001730650815,6.05420332174652,6.527100186672271
330,4.73334535599803,1.3632450018920585,6.096590357890088,6.692265003107933
335,4.740556957323348,1.4109374593060688,6.151494416629417,6.92639061018591
340,4.747725811521706,1.356473789161786,6.104199600683492,6.659024646517217
345,4.7546091187108335,1.57705828301822,6.331667401729053,7.741889345390016
350,4.760088257485447,1.7453491164956507,6.505437373981097,8.568040810212366
355,4.766213619029659,1.7326662316783343,6.4988798507079935,8.505779642129175
360,4.772905939979835,1.8260690968573505,6.598975036837185,8.964300836015813
365,4.780194806885,1.7962939996599048,6.576488806544905,8.818132802638067
370,4.787787450135542,1.728261698625345,6.516049148760887,8.48415748150167
375,4.79606111036826,1.464411336247878,6.260472446616138,7.188897609838571
380,4.804222114259206,1.4769761244893158,6.281198238748521,7.250579033576
385,4.814978952522811,1.6485340037019973,6.463512956224808,8.092768654274389
390,4.8255083530749046,1.8804317427516157,6.70594009582652,9.23117086457972
395,4.837915038673616,1.959920204716101,6.797835243389717,9.621385280489916
400,4.850746318009129,1.913730501533316,6.764476819542445,9.394636798973332
405,4.866066082234937,1.8829149069777558,6.748980989212693,9.243360891335367
410,4.88011780004098,1.6690235361269972,6.549141336167978,8.193353201136881
415,4.8935054790714485,1.8350667332822037,6.728572212353653,9.008470862146963
420,4.907397274490306,1.7437928868069623,6.651190161297268,8.560401169892431
425,4.920113153258516,1.6109213595093643,6.53103451276788,7.908125554864266
430,4.931873947432991,1.4748081762025786,6.406682123635569,7.239936423900012
435,4.943090696744829,1.6122498746767435,6.5553405714215724,7.914647328682184
440,4.9554669180101465,1.602973189065421,6.558440107075567,7.869107430589528
445,4.970342604667499,1.7831707266744994,6.753513331341998,8.753709738255239
450,4.985878641436806,1.7794232591050052,6.765301900541812,8.735313158014122
455,5.000491112529193,1.643799343688512,6.644290456217705,8.069525877322421
460,5.014503011151778,1.7530233954869177,6.767526406638695,8.605714382201308
465,5.027932153425105,1.8499662893604112,6.877898442785517,9.08161382439193
470,5.041555473020019,1.8197011071086164,6.861256580128636,8.933039929226162
475,5.055567239613938,1.8829609296001375,6.9385281692140754,9.243586819605554
480,5.069805822707225,2.027680136131399,7.097485958838623,9.95402352012712
485,5.08446311239098,2.16388810839397,7.248351220784949,10.622677976700931
490,5.098766864373776,2.254542776247188,7.353309640620964,11.067708077820278
495,5.113214494558434,2.233204122192004,7.346418616750438,10.962955133522856
500,5.127959093357816,2.2111972318812882,7.339156325239104,10.8549217707383
505,5.141752131501965,2.06651231201107,7.208264443513036,10.144653385832385
510,5.155166376393808,2.1632358212585,7.318402197652308,10.619475853559
515,5.167675584475238,1.929574549770797,7.0972501342460355,9.472416339246786
520,5.177925931197511,1.8228463592544528,7.000772290451964,8.948480191858572
525,5.187471519594906,1.8468059709181004,7.0342774905130065,9.066099600257019
530,5.1972821290383635,1.9035689559917677,7.100851085030131,9.344753061632789
535,5.207933590306579,1.9438452672308615,7.15177885753744,9.542472288760395
540,5.219606969824112,2.0344190497264916,7.254026019550604,9.987105318005575
545,5.233719910196698,2.3004862752300683,7.534206185426767,11.293247925710217
550,5.24718933306758,2.1487449866446817,7.3959343197122625,10.548339333551747
555,5.259794713376394,2.075172678600147,7.334967391976541,10.187167730765044
560,5.273875649363859,2.1514908962629997,7.425366545626859,10.561819195803112
565,5.28944292156437,2.2355380763961996,7.5249809979605695,10.974412677851218
570,5.30272396508224,2.156674466984743,7.459398432066983,10.587265706800116
575,5.315629686844299,1.8753762815938226,7.191005968438121,9.206353252386819
580,5.328302257810673,2.001185355198351,7.329487613009024,9.823958788580583
585,5.3422582369469644,1.9240417988728755,7.26630003581984,9.445255678357743
590,5.354984233787177,2.0176178599402066,7.372602093727384,9.904627102966256
595,5.366606394651129,2.2050021334735126,7.571608528124641,10.824509599626268
600,5.376045552955739,2.428462292192558,7.804507845148297,11.921491138314366
605,5.383772390277447,2.2879988636360347,7.671771253913482,11.231946349343408
610,5.392239638839042,2.1148806792782384,7.5071203181172805,10.382097081624618
615,5.399222325363816,2.0853208659114446,7.484543191275261,10.236985891619566
620,5.405264890597169,1.9761328344579667,7.381397725055136,9.700974213131698
625,5.411928073639869,1.9975822181471705,7.40951029178704,9.806270736942361
630,5.419831908990758,2.1147350967646177,7.534567005755376,10.38138240688925
635,5.429500625091546,2.3593092119656016,7.788809837057148,11.582013833781678
640,5.438488109158982,2.3212131832898617,7.7597012924488435,11.394997766156118
645,5.4470903475385715,2.6572539673858535,8.104344314924425,13.044645464039716
650,5.455122153214008,2.485162171108784,7.940284324322792,12.199834807152229
655,5.464332571141314,2.4236410398517925,7.887973610993107,11.897823273575103
660,5.472288876056853,2.312161169832931,7.784450045889784,11.350560799373625
665,5.478559454939083,2.4438422361185785,7.922401691057662,11.996992358082652
670,5.484885135728845,2.5013260645894095,7.986211200318255,12.279184490080993
675,5.49103998018789,2.42834224712467,7.91938222731256,11.92090182868513
680,5.497111145468008,2.3547959800219918,7.8519071254899995,11.559858062702226
685,5.502559031178177,2.349589372915996,7.852148404094173,11.534298464484715
690,5.507308309934461,2.212307521672959,7.71961583160742,10.860372260933236
695,5.511995094898409,2.400293295378007,7.912288390276416,11.783207563980305
700,5.516208967201498,2.484143605527366,8.000352572728865,12.194834597516815
705,5.51936057369401,2.547671923428432,8.067032497122442,12.506699550629097
710,5.522002461540701,2.6746553856849076,8.196657847225609,13.130070242803308
715,5.523797715608206,2.6048465995528685,8.128644315161074,12.78737403214969
720,5.527139096142646,2.6334805114660833,8.16061960760873,12.927939907199976
725,5.530794579389995,2.7853031251780966,8.316097704568092,13.673247730089562
730,5.532870214013785,2.662859871181056,8.19573008519484,13.072165237614792
735,5.5341635129604825,2.312037981681321,7.846201494641804,11.349956060126699
740,5.532977286917405,2.184848087039335,7.717825373956741,10.725571976942698
745,5.530031024786708,2.1999396208789213,7.729970645665629,10.799657371437236
750,5.528560035121829,1.953248974795702,7.481809009917531,9.58863574650152
755,5.524808516288559,1.8893707888841658,7.414179305172724,9.275053266870582
760,5.519723216366808,1.8234907357816452,7.343213952148453,8.951643481271528
765,5.514490770314351,1.8872003170617822,7.4016910873761335,9.264398268981713
770,5.507898244597068,1.954941218211137,7.462839462808205,9.596943087713216
775,5.503603498129814,1.8697065514147146,7.3733100495445285,9.17852015063178
780,5.500298581236771,1.9111495596732877,7.411448140910059,9.381966774978416
785,5.4997414976934085,1.7914410288395024,7.291182526532911,8.794309229665192
790,5.4990545724564175,1.9532377141089445,7.452292286565362,9.588580467003123
795,5.499606278566564,2.003463699655737,7.5030699782223005,9.835143340774817
800,5.50035697981676,1.9362777156650666,7.4366346954818265,9.505322649163189
805,5.500821811077069,2.034948063838811,7.53576987491588,9.989702285260257
810,5.500235831514239,1.9342850752356946,7.434520906749933,9.495540638012768
815,5.4977142075810015,2.1165242033643312,7.614238410945333,10.390165256243163
820,5.494750198017291,2.0051586906716397,7.499908888688931,9.843464170149261
825,5.492139258446319,1.8186784287253,7.310817687171619,8.928019529558746
830,5.48829178316158,2.1404238184744484,7.628715601636029,10.50749013736666
835,5.484450679383357,2.0874887400494107,7.571939419432768,10.247628137294054
840,5.480686965776882,2.185212172422861,7.665899138199743,10.727359297539458
845,5.476279102222405,2.118431466376249,7.594710568598654,10.399528143683545
850,5.472166172029779,2.395240737445838,7.867406909475617,11.758404203924922
855,5.468265084247107,2.3635394724391463,7.831804556686253,11.60278047813529
860,5.465066482204478,2.42099522762451,7.886061709828988,11.88483479641299
865,5.46322509721825,2.17267883820415,7.6359039354224,10.665832283798185
870,5.463977908102205,2.254989709123034,7.718967617225239,11.069902102547758
875,5.467295934983694,1.8908329733958218,7.358128908379516,9.282231232842847
880,5.472366820153716,2.210372880629315,7.6827397007830305,10.850874972821423
885,5.479577576229949,2.1262629849497565,7.605840561179706,10.43797361577252
890,5.48835444446743,2.1367035485001478,7.625057992967578,10.489227072021421
895,5.498176076567153,2.2308594424174064,7.729035518984559,10.951444936619692
900,5.505459570463852,2.1541670243135687,7.659626594777421,10.574956495460768
905,5.512780318070616,2.29253898698101,7.8053193050516265,11.254234132191835
910,5.518546029924676,1.863532580981056,7.382078610905731,9.1482116982215
915,5.524881246390212,1.9951451032800114,7.520026349670223,9.794306769708733
920,5.53086907637593,1.9214044064098432,7.452273482785773,9.432308534406864
925,5.534231888847007,2.0339983335614225,7.568230222408429,9.98503999294381
930,5.536447381371824,1.7243664460739834,7.260813827445807,8.465035414454613
935,5.539332291572345,1.8144931497995442,7.353825441371889,8.907473702767373
940,5.539253123180309,1.9182255374276738,7.457478660607983,9.41670324437513
945,5.541408908627502,1.907954025302552,7.449362933930054,9.366279673389322
950,5.543961316834306,1.9112337386395002,7.455195055473806,9.382380015407538
955,5.546723939879459,2.137079885186496,7.683803825065954,10.491074535120086
960,5.550680990476893,2.0133231780046,7.564004168481493,9.883544209152415
965,5.555319081719893,2.1878976769080256,7.743216758627918,10.740542626769944
970,5.561837196703698,2.28331938030984,7.8451565770135385,11.208974438606122
975,5.569890754755736,2.4182466818002766,7.988137436556013,11.871341992842522
980,5.578892392109662,2.530068897684277,8.108961289793939,12.42028506682544
985,5.588809311301269,2.375702264474541,7.964511575775809,11.662488474398312
990,5.598628868854706,2.4478868705096426,8.046515739364349,12.016847751022377
995,5.612416206026745,2.635712876965802,8.248129082992547,12.938898745477157
1000,5.628309135827849,2.744911540954535,8.373220676782385,13.47496261982379
1005,5.645651314296362,2.671970510244013,8.317621824540375,13.116890001595115
1010,5.663268312372886,2.580873984319645,8.24414229669253,12.669690788319265
1015,5.679786414118608,2.5939516348560017,8.273738048974609,12.73388988891077
1020,5.694148541346586,2.746265098072387,8.440413639418974,13.481607326326976
1025,5.709028167739029,2.633097673487934,8.342125841226963,12.92606052880543
1030,5.724762065936474,2.8603760929790143,8.585138158915488,14.041786176514256
1035,5.7389737428923295,2.5388158246642374,8.277789567556567,12.46322434276739
1040,5.753659012520163,2.6386542515908538,8.392313264111017,12.953338159109295
1045,5.7700619331976455,2.438990474981195,8.20905240817884,11.97317472352827
1050,5.785163703717209,2.5327295635521216,8.31789326726933,12.433346461547318
1055,5.800573948954899,2.4943284973663817,8.29490244632128,12.244832943463496
1060,5.818437034511916,2.64661968603279,8.465056720544705,12.992441033556908
1065,5.835339328293458,2.631472507864977,8.466811836158435,12.918082477165648
1070,5.852727467566694,2.6459397205439337,8.498667188110627,12.989103035443524
1075,5.871682598115526,2.617255024515911,8.488937622631436,12.848287857623916
1080,5.88817810296422,2.6695153806998757,8.557693483664096,13.104837599053
1085,5.904593220856819,2.4996621506914245,8.404255371548244,12.271016220450651
1090,5.920054441103223,2.3172082755433108,8.237262716646534,11.375337394091142
1095,5.935088463771565,2.3040214076825847,8.239109871454149,11.310602138020178
1100,5.951961736970375,2.061388540280569,8.013350277250945,10.11950043226325
1105,5.970685080158019,2.0010673320768424,7.971752412234862,9.823379404827454
1110,5.988983566635196,2.076311026503952,8.065294593139148,10.192755960193667
1115,6.007119034542876,2.119353287722117,8.126472322264993,10.404053429104367
1120,6.025789136330491,2.309876213657499,8.335665349987991,11.339343789793354
1125,6.042032035107747,2.2379931719946735,8.28002520710242,10.986464913751696
1130,6.0563526950237785,2.3896346767384173,8.445987371762197,11.730883660056799
1135,6.069857701825452,2.1997213823615946,8.269579084187047,10.798586023301128
1140,6.082446878947295,2.3047168259246797,8.387163704871975,11.314015994779332
1145,6.093966870040207,2.246578922204619,8.340545792244825,11.028612961663624
1150,6.101018499075245,1.9323805640395277,8.033399063114773,9.486191259428253
1155,6.107188812570372,1.8996360810374322,8.006824893607805,9.325446303579785
1160,6.110343957161644,1.8100629807178765,7.92040693787952,8.885725693083167
1165,6.1089583038792465,1.8595594917697758,7.9685177956490225,9.128707525570235
1170,6.106333322128515,2.0261323996432985,8.132465721771814,9.946425573522532
1175,6.105307370983004,2.3750419100089863,8.480349280991991,11.659246748169098
1180,6.104663570843783,2.4713108520024547,8.575974422846238,12.131837713472434
1185,6.104274062940253,2.422381420410554,8.526655483350808,11.891639713692518
1190,6.1036582021490755,2.622630345855485,8.726288548004561,12.874675685806936
1195,6.101691366915757,2.4152145141416117,8.516905881057369,11.856456869862077
1200,6.1010218961424565,2.5729627462207576,8.673984642363214,12.630853967507923
1205,6.099940046792044,2.414188058639269,8.514128105431313,11.851417928053348
1210,6.101322828503582,2.397163722690669,8.498486551194251,11.767844272905636
1215,6.104010766099518,2.4907763768862075,8.594787142985725,12.227395335738326
1220,6.10970632735659,2.5621156193356294,8.67182194669222,12.57760466343062
1225,6.111588545059806,2.5653683510261938,8.676956896086,12.59357255066076
1230,6.111526316174846,2.4645646242615746,8.576090940436421,12.098720009941061
1235,6.108519164834352,2.4060126146353626,8.514531779469714,11.811284101986665
1240,6.10490595979513,2.174965624387971,8.279871584183102,10.67705827701755
1245,6.100234069014652,2.1266919019501276,8.22692597096478,10.440079199308007
1250,6.095489315119034,2.140219198948616,8.23570851406765,10.506485645811745
1255,6.093535275619752,2.259466613298055,8.353001888917808,11.09187953807195
1260,6.091519035572378,2.1656430960159434,8.257162131588322,10.631293333608253
1265,6.0884326791464956,2.3382470793905292,8.426679758537025,11.478618352758572
1270,6.083036184622633,2.4271171022026503,8.510153286825282,11.914887506627108
1275,6.076964068576532,2.184924509776659,8.261888578353192,10.725947141502058
1280,6.071731232795454,2.120702336936671,8.192433569732124,10.41067600599517
1285,6.06799386915224,2.4803371911373437,8.548331060289584,12.176148643213429
1290,6.066709778708499,2.3185144853440685,8.385224264052567,11.381749669305204
