#"Step","Potential Energy (kJ/mole)","Kinetic Energy (kJ/mole)","Total Energy (kJ/mole)","Temperature (K)"
5,4.340364477731345,0.08301306459375393,4.423377542325099,0.4075169365818116
10,4.340668865073505,0.11170421497262546,4.45237308004613,0.5483637992608886
15,4.340369209037291,0.16536737322745174,4.505736582264743,0.8117999941096354
20,4.340888249862963,0.23995740386549008,4.580845653728453,1.177967668245159
25,4.340874356290216,0.2794245114445106,4.620298867734727,1.3717144580433205
30,4.3413176615982465,0.3137881573111372,4.655105818909384,1.5404079975708753
35,4.3414462895992605,0.33029150020129655,4.671737789800557,1.6214240613780535
40,4.341913934025477,0.41091263239234443,4.752826566417822,2.0171988346024254
45,4.342456270990441,0.4253706452837187,4.76782691627416,2.08817423048001
50,4.343264448957309,0.4059264696844641,4.749190918641773,1.9927214133440043
55,4.343904940591302,0.48329442265677575,4.827199363248078,2.3725261023911592
60,4.344834883665596,0.49526060303334885,4.840095486698945,2.431268918278158
65,4.345744141371149,0.501289000984608,4.847033142355757,2.4608627451970366
70,4.346662015162543,0.6046233915756452,4.9512854067381875,2.968138491530299
75,4.348022903401069,0.5695203066410857,4.9175432100421546,2.795814993932558
80,4.348944623734226,0.6524533240846444,5.001397947818871,3.202938973458884
85,4.350797419716223,0.6197600373889234,4.970557457105146,3.0424453438569525
90,4.3518573004925925,0.6108419936420038,4.962699294134596,2.998666043745188
95,4.353187246666209,0.6650276264011994,5.018214873067409,3.264667102456083
100,4.354525788402398,0.6662844590010387,5.020810247403437,3.2708369815394436
105,4.356170421361475,0.7439067280937105,5.100077149455186,3.6518901261977694
110,4.3577950713563585,0.7715698653995833,5.129364936755942,3.787690400844894
115,4.359051134905103,0.7629911295553309,5.122042264460434,3.745576786944446
120,4.360787556069614,0.8356514541770403,5.196439010246654,4.1022713993622
125,4.363194840735652,0.7527403905867469,5.115935231322399,3.695255192836096
130,4.364801857684493,0.7791414571365164,5.143943314821009,3.8248598739246207
135,4.366676366894818,0.8390397887794591,5.205716155674277,4.118904970765077
140,4.368594525437992,0.8053832718312948,5.173977797269286,3.9536827765255236
145,4.369827505675465,0.8539101839256235,5.223737689601088,4.191904779956339
150,4.372099763026328,0.9930284416217013,5.3651282046480295,4.874846031147906
155,4.3732943432301035,0.9337013876988598,5.306995730928963,4.583605376566899
160,4.374315794393486,0.9573574710173295,5.331673265410815,4.699734743102684
165,4.375318065005971,1.011499149660619,5.38681721466659,4.965520027986267
170,4.377368599311058,0.9956220967924385,5.372990696103496,4.8875784656737356
175,4.37832168724377,1.0386416323772933,5.416963319621063,5.0987643728620275
180,4.380500008343414,0.8930004348904966,5.27350044323391,4.383801554293928
185,4.3817732867077295,0.9111246145994506,5.29289790130718,4.472774419338677
190,4.3839944530376584,0.8950778678497431,5.279072320887401,4.393999817900376
195,4.386331783776096,0.8572639706365586,5.243595754412654,4.208368753345075
200,4.388085060350943,0.9331215126734135,5.321206573024357,4.580758729534572
205,4.390329252325143,0.8812208793440216,5.271550131669165,4.325974892742681
210,4.392056139859422,0.7784064889182792,5.170462628777702,3.8212518635680977
215,4.394295825314066,0.7476636509045331,5.141959476218599,3.6703331228794744
220,4.396248129490437,0.7497452329065717,5.145993362397009,3.6805517544270008
225,4.3984820474267226,0.7149648451031135,5.113446892529836,3.5098123996018913
230,4.400241423825209,0.758773870931082,5.159015294756291,3.724873969577835
235,4.403123931585018,0.8013938866097235,5.204517818194741,3.9340986056206737
240,4.405854465616148,0.8212796034994199,5.227134069115568,4.031718979814545
245,4.408005099069794,0.7618064688679768,5.169811567937771,3.7397612048241857
250,4.411447044883236,0.7300182919869701,5.141465336870206,3.5837108225685315
255,4.414847637029351,0.849311403121,5.264159040150351,4.16932904353843
260,4.419005750026419,0.8797432240575482,5.298748974083967,4.318720979655453
265,4.423970234882753,0.9530949993276914,5.377065234210445,4.67880997163775
270,4.429008164170555,0.9888456535493843,5.417853817719939,4.854312432130169
275,4.434077396719135,1.0529467054617068,5.4870241021808415,5.1689889765369745
280,4.439608315140368,1.238590603658485,5.678198918798853,6.0803278490202946
285,4.445242969961804,1.1344123289101438,5.5796552988719474,5.568909416372565
290,4.4510164293283925,1.1439668981412658,5.5949833274696585,5.6158134645784745
295,4.457262941734162,1.1924276261257398,5.649690567859902,5.853710565587841
300,4.462661354082396,1.2691501598094077,5.731811513891804,6.230346846233185
305,4.467917230883628,1.3200579390298646,5.7879751699134925,6.4802566928052725
310,4.47378947060205,1.2978185185619764,5.771607989164027,6.37108182322564
315,4.479037353066711,1.259263498216185,5.7383008512828955,6.181812533408957
320,4.485063823472355,1.1731769500890683,5.658240773561424,5.75920765132989
325,4.491445307598243,1.1862891763627148,5.677734483960958,5.823576486632544
330,4.498477185947003,1.1307822502424163,5.629259436189419,5.551089106455533
335,4.505739417293619,1.0550182596580195,5.5607576769516385,5.179158380885263
340,4.513119730784083,1.0677489329649708,5.580868663749054,5.24165414600442
345,4.520009458245951,1.0347178565851904,5.554727314831142,5.07950228323244
350,4.52696154000528,0.9859857258635536,5.512947265868833,4.84027284721569
355,4.534337043653307,1.1517382931020486,5.686075336755355,5.65396378565003
360,4.541238969312167,1.0554912735160427,5.59673024282821,5.181480438977272
365,4.547214951748381,1.0572880078029647,5.604502959551345,5.190300733180855
370,4.553427659191353,1.0455006010034933,5.598928260194846,5.132435529279858
375,4.559845605250579,1.1568479376290566,5.716693542879636,5.679047387789748
380,4.56637120917326,1.1660528972302322,5.732424106403492,5.724235177885051
385,4.57329413985437,1.226234407814035,5.799528547668404,6.01967041993998
390,4.5811777297406655,1.2530729419844993,5.834250671725165,6.151422660156839
395,4.588796121784889,1.3241507574772284,5.912946879262117,6.500348624645369
400,4.597948310488379,1.4505413862697494,6.0484896967581285,7.120809055906841
405,4.606279076206066,1.4649957707167576,6.071274846922824,7.19176663949741
410,4.615328326258954,1.4404348484765823,6.055763174735536,7.071195355448063
415,4.624442942408794,1.4903297035216725,6.114772645930467,7.316132686441365
420,4.633695305176743,1.488246506967045,6.121941812143788,7.305906128942325
425,4.642194787034883,1.425108550613313,6.067303337648196,6.995957487951603
430,4.651087398016072,1.5778230598521221,6.228910457868194,7.745643688324416
435,4.6587965572722085,1.7032674520419389,6.362064009314148,8.361458977962668
440,4.668353201839472,1.6150270734314254,6.283380275270897,7.928280791491025
445,4.677137458419302,1.6135554728835513,6.2906929313028535,7.9210566015387975
450,4.687033805518643,1.7431107810649875,6.430144586583631,8.55705266512689
455,4.698080246854955,1.6211008968030831,6.319181143658039,7.958097614973811
460,4.708723021048061,1.5214436604756472,6.230166681523708,7.468873275948238
465,4.720164713105255,1.4659874919769007,6.186152205082156,7.19663506848331
470,4.730789135144463,1.3872072187224451,6.117996353866909,6.809897200452
475,4.741362434506978,1.3995433397444033,6.140905774251381,6.870456080825501
480,4.7520548414203665,1.413221823460447,6.165276664880814,6.937604713493447
485,4.763155965937665,1.477949516734353,6.241105482672018,7.255357484145573
490,4.773877581332181,1.5206324175984687,6.29450999893065,7.464890827959485
495,4.784070608346968,1.4836072655709098,6.267677873917878,7.28313176865255
500,4.793873832025547,1.5368398497566416,6.330713681782188,7.544454245299617
505,4.803772019930086,1.484510993843025,6.288283013773111,7.2875682339096395
510,4.812393834551671,1.5580266677346075,6.370420502286278,7.6484618156808555
515,4.821364716828389,1.6189044146562486,6.440269131484637,7.947314930584129
520,4.830514983764109,1.6168002409343596,6.447315224698469,7.9369853947047275
525,4.84044127111476,1.5613328890089617,6.401774160123722,7.6646922870166625
530,4.850071806139934,1.644637442478782,6.494709248618716,8.073640162865727
535,4.859409104802697,1.5021640438070893,6.361573148609786,7.37422829010545
540,4.869902555054984,1.621591192904329,6.491493747959312,7.960504512805802
545,4.881637944410444,1.571896373019678,6.453534317430122,7.7165491683972585
550,4.894772535236967,1.4929303243996954,6.387702859636663,7.328899316111153
555,4.90677324901765,1.4474193608610424,6.354192609878693,7.105482814950516
560,4.916353142721781,1.2996576831593791,6.21601082588116,6.3801104107891895
565,4.9253855584363695,1.2709531064206732,6.196338664857043,6.239197637171203
570,4.935401220729816,1.234791337850814,6.170192558580631,6.061676987607347
575,4.944604724931023,1.136940750010285,6.081545474941308,5.581321612286074
580,4.9534213298198795,1.108748310869021,6.0621696406889,5.442922957931594
585,4.961663761552204,1.0912598107914795,6.052923572343683,5.357070688630519
590,4.971184744484014,0.9911344296857713,5.962319174169785,4.865548194165777
595,4.980204107592172,0.8494720988998872,5.829676206492059,4.170117910349386
600,4.987408553663906,0.8986764042232726,5.886084957887179,4.41166528449043
605,4.995337444543588,0.9331074611884713,5.928444905732059,4.580689749812812
610,5.003344790632126,0.9112778831162743,5.914622673748401,4.473526825201009
615,5.0111920036282775,0.8931639321854568,5.904355935813735,4.384604173943107
620,5.017115013450673,0.8644853651708457,5.881600378621519,4.243819083878743
625,5.022019545055503,0.865924157583315,5.887943702638818,4.2508822164010285
630,5.025708320991716,1.005399475014005,6.0311077960057204,4.9355762987877565
635,5.028439809707929,1.1353931733382605,6.1638329830461895,5.573724450229773
640,5.0318311467650485,1.2058359285788025,6.237667075343851,5.9195328595505385
645,5.035149155580516,1.1756870892315752,6.210836244812091,5.771530099835489
650,5.039477106976252,1.2645830355011576,6.304060142477409,6.207926513768716
655,5.043075693504759,1.2303068583838377,6.273382551888597,6.039662364445444
660,5.04576921724256,1.2063112594849192,6.252080476727479,5.921866292193597
665,5.048777902215998,1.014996461479206,6.063774363695204,4.982688576160661
670,5.052186385048969,1.017886005277744,6.070072390326714,4.996873548642545
675,5.054500713667615,1.046082060432258,6.100582774099873,5.135289954258822
680,5.055332539223823,1.0488572203149673,6.10418975953879,5.148913408102635
685,5.057015818810967,1.1343042508092156,6.191320069620183,5.568378853420609
690,5.059453969667204,1.2869890147003855,6.34644298436759,6.317919031802705
695,5.062048842709054,1.3511465669542233,6.4131954096632775,6.632872940335298
700,5.063671280149563,1.370208921965908,6.433880202115471,6.726451373518226
705,5.0654892727259,1.5167575122953083,6.5822467850212085,7.445868646976092
710,5.0660795757839905,1.585329797225204,6.651409373009194,7.782494786798773
715,5.066681037837304,1.5651153565042812,6.631796394341585,7.683260684340099
720,5.067058567207559,1.590555027811262,6.657613595018821,7.808145808981661
725,5.067212683364654,1.6553519003435133,6.722564583708167,8.126238185448534
730,5.066876384243999,1.6681871500199126,6.735063534263912,8.189247323275044
735,5.067686753187062,1.5767446112477672,6.64443136443483,7.740349508743668
740,5.06902731141775,1.5566235049146757,6.625650816332426,7.641573591318794
745,5.068345981691334,1.3616356646047254,6.42998164629606,6.684364653874106
750,5.0679782222662855,1.2308010873677986,6.298779309634084,6.042088569073588
755,5.0679595979991605,1.2841382309179332,6.352097828917094,6.303924334949055
760,5.067842717601543,1.3391267290441176,6.406969446645661,6.573866715865606
765,5.067246592443829,1.390610948491146,6.457857540934975,6.826606347802255
770,5.0663453942355,1.490840205933434,6.557185600168935,7.31863877846407
775,5.063193590693171,1.5213703355037846,6.584563926196956,7.468513318536058
780,5.061257943233556,1.4935671432853057,6.5548250865188615,7.332025504533317
785,5.059143921283786,1.5670778288791352,6.626221750162921,7.692894598402188
790,5.058030615075452,1.505942608151247,6.563973223226699,7.392777526587008
795,5.058652281814332,1.543690561062126,6.602342842876459,7.578084865952881
800,5.060407057597378,1.5066685069753747,6.567075564572753,7.396341014653911
805,5.062448501615266,1.4921918311466118,6.554640332761878,7.325274001112174
810,5.0646115674408865,1.3954843044523613,6.460095871893248,6.850529992856273
815,5.066597897036967,1.4885622694853513,6.5551601665223185,7.307456229216026
820,5.0705151246685185,1.5636072462144237,6.634122370882942,7.675857265512498
825,5.074165566750349,1.5223364484815316,6.596502015231881,7.4732560346736925
830,5.078100428279189,1.5836936713550713,6.66179409963426,7.7744629305395
835,5.081851376188943,1.530826696230018,6.61267807241896,7.514935254326838
840,5.084287016191461,1.781092446911144,6.865379463102605,8.743507317628229
845,5.087942549188615,1.5900228744605431,6.677965423649159,7.805533430986245
850,5.091800800451681,1.538991702769623,6.630792503221304,7.5550178421517025
855,5.094947286863849,1.5099651763855202,6.604912463249368,7.412524595220656
860,5.098066009020998,1.3669260954241562,6.464992104445154,6.710335748560023
865,5.099571626172037,1.3189742857412468,6.4185459119132835,6.474936963065677
870,5.098284178091734,1.298520916151408,6.396805094243142,6.374529942088718
875,5.095017530961353,1.3450548751579787,6.440072406119331,6.60296839950724
880,5.090463924053821,1.2723796587820868,6.362843582835907,6.246200682427293
885,5.086111706063326,1.3728635945090155,6.458975300572341,6.739483346590046
890,5.081429302557107,1.3944839326127347,6.475913235169842,6.845619097571026
895,5.076798622053845,1.5440907498654963,6.620889371919342,7.580049420761235
900,5.072145598065486,1.6247586456694298,6.696904243734916,7.97605375982997
905,5.067025319183544,1.5874810813748208,6.654506400558365,7.793055591060838
910,5.060287851964591,1.4014769404098093,6.4617647923744,6.879948261647821
915,5.055023967350205,1.459664566923937,6.514688534274142,7.165595387435153
920,5.049706276278339,1.505292828485301,6.55499910476364,7.389587712788237
925,5.042542093210175,1.566544598307055,6.60908669151723,7.690276932251814
930,5.036572506491924,1.4916148219905951,6.5281873284825185,7.322441422833197
935,5.03198137032711,1.4997732241762505,6.531754594503361,7.362491589422888
940,5.028094521701251,1.5386945899470332,6.566789111648284,7.553559294537861
945,5.0260903475402,1.5978074134173454,6.623897760957545,7.843748276853009
950,5.024561372077908,1.4854685356896085,6.5100299077675166,7.292268873765284
955,5.0239517708504255,1.4237775431763091,6.447729314026734,6.98942347940789
960,5.025058101288584,1.3322093815184064,6.357267482806991,6.539908973349475
965,5.026567611768752,1.2907197209775862,6.317287332746338,6.336233329688363
970,5.029829556036583,1.2434634714383466,6.27329302747493,6.104249097557923
975,5.034215958984047,1.107690789623973,6.1419067486080205,5.4377315122204735
980,5.039461532460419,1.1545320094219735,6.193993541882392,5.667678334341202
985,5.045529973426869,1.1918200171996054,6.237349990626474,5.8507277708984775
990,5.051949037677024,1.1613888882628594,6.213337925939883,5.701339231856854
995,5.0587632833202,1.272450336920051,6.331213620240251,6.246547646346857
1000,5.065024804843668,1.321550673252902,6.386575478096571,6.487584629446089
1005,5.071071578937781,1.4073089993769572,6.478380578314738,6.908578246769891
1010,5.077374298433462,1.2793077509915074,6.356682049424969,6.2802111713467905
1015,5.082456232464219,1.188861853138287,6.271318085602506,5.83620593675015
1020,5.086468708627599,1.2246114985837533,6.3110802072113525,6.01170344508956
1025,5.089124650583052,1.2312610247993643,6.320385675382417,6.044346434074093
1030,5.091766556120892,1.2250504654855847,6.316817021606477,6.0138583642937915
1035,5.094939973697117,1.3135275839291007,6.408467557626217,6.44819872315341
1040,5.098415149726792,1.335810860138981,6.434226009865773,6.557588883635933
1045,5.100887057115617,1.304234374024735,6.405121431140352,6.402577706151179
1050,5.1019903465241345,1.3963578659676166,6.498348212491751,6.854818367395326
1055,5.10036454530456,1.3308820732184006,6.431246618522961,6.53339312412785
1060,5.097978664943546,1.4687761615581398,6.566754826501686,7.210324842381513
1065,5.094463495386865,1.5205432835948676,6.615006778981733,7.464453262905472
1070,5.091066210111693,1.5388142176050943,6.629880427716787,7.55414655507308
1075,5.088200534286845,1.4788064596433719,6.5670069939302165,7.259564276784995
1080,5.085330890433034,1.4519404100203823,6.537271300453416,7.127676961288401
1085,5.083543291829148,1.5878704896026914,6.6714137814318395,7.794967223270517
1090,5.08162715918701,1.7563748439179643,6.838002003104974,8.622166876810628
1095,5.080111128402051,1.620947062144827,6.7010581905468785,7.957342429883614
1100,5.078737321421553,1.534613264774668,6.613350586196221,7.5335237839880955
1105,5.078669402526373,1.465094996353017,6.543764398879389,7.192253745081533
1110,5.078349682023866,1.3925359643967004,6.470885646420566,6.836056385438401
1115,5.0788553296606525,1.3378364763163288,6.416691805976981,6.5675327750381225
1120,5.0795931371306215,1.359750245523699,6.439343382654321,6.675108999817327
1125,5.080406494313539,1.3094854062268473,6.389891900540387,6.428355390270773
1130,5.080798568950362,1.4823241059260805,6.563122674876443,7.276832648265112
1135,5.082076028105732,1.4695652316304182,6.55164125973615,7.214198442521164
1140,5.082174614164529,1.6018297954858012,6.68400440965033,7.8634944315856465
1145,5.082344513850807,1.4844809475362144,6.566825461387022,7.287420734489314
1150,5.080540829444259,1.4783297933174724,6.558870622761732,7.257224288472879
1155,5.078897228048832,1.5226994071225168,6.601596635171349,7.475037824012564
1160,5.078266491860442,1.4442777994576377,6.52254429131808,7.090060670430683
1165,5.077678805879468,1.468534548954431,6.546213354833899,7.209138749221541
1170,5.076145293741042,1.4660592069801206,6.542204500721162,7.196987122446889
1175,5.073447174315779,1.5187853806928862,6.592232555008666,7.455823594684819
1180,5.070967472196692,1.5032355442512135,6.574203016447905,7.37948836068196
1185,5.06845013778875,1.3942400777442203,6.4626902155329695,6.844421996976393
1190,5.066614269498452,1.323512451401734,6.390126720900186,6.497215135504111
1195,5.064549766298981,1.272181264672058,6.336731030971039,6.245226751873706
1200,5.063585182750447,1.3734773134119278,6.437062496162374,6.742496135582491
1205,5.063477183022472,1.27060045539833,6.334077638420801,6.237466448652733
1210,5.0636768903756195,1.196928007737315,6.260604898112934,5.875803253489116
1215,5.064563744013684,1.113661854316369,6.178225598330053,5.467043886164082
1220,5.0666570145064345,1.0642444267690798,6.1309014412755145,5.2244502801289645
1225,5.06886055202658,0.9784399941434861,6.047300546170066,4.803230322766334
1230,5.071835777294579,1.0354928642981063,6.1073286415926855,5.083306850267043
1235,5.074814949124186,1.0244621768810394,6.099277126005226,5.029156434707841
1240,5.07660475104449,0.8891421006358936,5.965746851680384,4.3648607217461945
1245,5.078835607425542,0.8002780246169626,5.879113632042504,3.9286207611010986
1250,5.080975271320145,0.7498468959752644,5.830822167295409,3.6810508255373127
1255,5.084297271816006,0.773825628334818,5.858122900150825,3.798764098768472
1260,5.088955068893345,0.8102839244110748,5.89923899330442,3.9777404225880684
1265,5.092597912500427,0.7853769832733924,5.87797489577382,3.8554705075846476
1270,5.09641317540328,0.84163968620388,5.938052861607161,4.131668048950563
1275,5.100120341530412,0.8124363665681731,5.9125567080985855,3.988306911589804
1280,5.102974081803333,0.9698170505253002,6.072791132328633,4.760899689813588
1285,5.105977031955026,1.0441114440771113,6.1500884760321375,5.125616060828224
1290,5.109258809928393,1.103928982923048,6.213187792851441,5.4192645401808806
