#"Step","Potential Energy (kJ/mole)","Kinetic Energy (kJ/mole)","Total Energy (kJ/mole)","Temperature (K)"
5,4.340834929829453,0.2696044332002854,4.610439363029738,1.3235070075333983
10,4.341214616260299,0.6258130276808057,4.967027643941105,3.0721598962949184
15,4.34142064919342,0.8860475357477636,5.227468184941184,4.349669286404832
20,4.342184209035217,1.2217887066539705,5.563972915689188,5.997846162197254
25,4.342918701825887,1.2066413393669555,5.5495600411928425,5.92348667740661
30,4.3443820753252975,1.4015163485211553,5.7458984238464526,6.880141718820987
35,4.346422812035725,1.5489825940109192,5.8954054060466445,7.6040638256038235
40,4.347710900120456,1.4286265905537334,5.776337490674189,7.013227791924943
45,4.35011240154291,1.3114833827207972,5.6615957842637075,6.438163596535191
50,4.35232326863857,1.9962358277594612,6.348559096398032,9.799661212418389
55,4.354776053772621,2.4581368894427063,6.812912943215327,12.067165810426031
60,4.358730886683485,2.636961647049154,6.995692533732639,12.945029045103524
65,4.364039429898872,2.9543735704434004,7.3184130003422725,14.5032263636723
70,4.370014922915552,3.433248648260797,7.803263571176349,16.854057593341242
75,4.377121088317012,3.4703583898436623,7.8474794781606745,17.036231908687867
80,4.385779772399739,3.8474814600896363,8.233261232489376,18.88755542087308
85,4.3952478790206335,4.170180373681722,8.565428252702356,20.471706943875887
90,4.4055029810615665,4.149434748007935,8.5549377290695,20.36986521735456
95,4.416342543150532,4.186513781700791,8.602856324851324,20.551888785522685
100,4.428819488129208,4.248001129766993,8.676820617896201,20.85373447505483
105,4.443051339116607,4.155289358960181,8.59834069807679,20.398605911747826
110,4.457128281435823,3.991319363118709,8.448447644554532,19.593665740900583
115,4.472389543193369,4.572321497828091,9.044711041021461,22.4458458313833
120,4.487602091992257,4.69644014825187,9.184042240244128,23.05515296202467
125,4.503743593661383,4.8260566358036705,9.329800229465054,23.69144935941823
130,4.519954205030377,4.206660480383466,8.726614685413843,20.650790337580528
135,4.537253490518542,4.660181308112219,9.197434798630761,22.877155781339546
140,4.5554635043414,5.026945815613968,9.582409319955367,24.677628384965068
145,4.574628423475813,4.6634060910110655,9.238034514486879,22.892986465997566
150,4.593028869854095,5.322635294775451,9.915664164629547,26.12918870642832
155,4.611368620774489,4.837997437256096,9.449366058030584,23.75006758839264
160,4.629677631688971,5.007257434271665,9.636935065960635,24.580976744766815
165,4.6484522842445415,5.055224808612465,9.703677092857006,24.81645193825469
170,4.6684008807874395,4.884734895843437,9.553135776630876,23.97950503947748
175,4.690718382568827,4.876225540932173,9.566943923501,23.937732021426697
180,4.7139875293378735,5.282950746120138,9.99693827545801,25.934374483187824
185,4.738760970445349,5.325821194145786,10.064582164591135,26.14482850912697
190,4.76372629950357,5.8206915493691325,10.584417848872702,28.57418167362808
195,4.790110471797233,6.863502517634937,11.653612989432169,33.693413607797254
200,4.820055388735993,7.1038820962501035,11.923937484986096,34.87345376139797
205,4.853705934884175,8.140888781799045,12.99459471668322,39.964192065999235
210,4.890184679788485,8.73070295201124,13.620887631799725,42.85963105471358
215,4.928554619369415,8.32400475461469,13.252559373984106,40.863121176088306
220,4.968085885997706,8.285208414621504,13.25329430061921,40.67266723125468
225,5.009159493454556,8.003953449925666,13.013112943380222,39.291966950254604
230,5.051382950143625,7.988714521226598,13.040097471370224,39.21715798409218
235,5.097338347752157,7.954250494433751,13.051588842185907,39.047971667581336
240,5.147185478676863,7.679607631772148,12.82679311044901,37.69973065764353
245,5.196602938314468,7.683653680697945,12.880256619012414,37.719592994633125
250,5.244874700788288,6.940639400634314,12.185514101422601,34.072083958195826
255,5.292133977958347,7.352253592144684,12.644387570103031,36.09272679554658
260,5.3413775675777275,7.21891438392542,12.560291951503148,35.43815530218375
265,5.391834895813609,7.400827162433044,12.792662058246654,36.33117784731324
270,5.444286493957444,7.859837019803274,13.304123513760718,38.584489321257365
275,5.499453180479659,7.762199501592812,13.26165268207247,38.10517991964334
280,5.55487404555156,6.784571747669049,12.339445793220609,33.30593694089002
285,5.607256647556428,6.373760922645674,11.981017570202102,31.289237885778054
290,5.661844425850023,6.424343286792969,12.086187712642992,31.53755024700996
295,5.719066318681079,6.83748740746312,12.556553726144198,33.56570361354588
300,5.7759545759895445,6.240630283013202,12.016584859002746,30.63569027018642
305,5.833521703849477,6.5651910483182805,12.398712752167757,32.228981753389
310,5.890051008480485,5.747876759778596,11.637927768259082,28.216728781881482
315,5.940045787368408,5.2635304590066045,11.203576246375013,25.839038936297996
320,5.989218757721647,5.406490102361681,11.395708860083328,26.540837818196792
325,6.041750119139269,5.825304879791046,11.867054998930314,28.596828835134264
330,6.091223561514325,5.682892052485388,11.774115613999713,27.8977143114437
335,6.139319177689175,5.980828034391545,12.12014721208072,29.36030287190779
340,6.185582790925383,6.152600051914416,12.3381828428398,30.203543712538853
345,6.233132297921438,5.187736039706253,11.420868337627692,25.46695883403418
350,6.284277359360101,5.696892181895175,11.981169541255277,27.966441925304792
355,6.338565715562668,5.647941858874708,11.986507574437375,27.72614136804176
360,6.395850961415201,5.900508844377342,12.296359805792543,28.96601035393486
365,6.458192000278475,5.58939947507394,12.047591475352416,27.4387527139373
370,6.517172988717933,5.827858408406513,12.345031397124446,28.609364285595483
375,6.570932973411425,5.6871321622518325,12.258065135663259,27.918529306664606
380,6.623625248228264,5.794795459372531,12.418420707600795,28.447055957736172
385,6.678639217852025,6.008185659616573,12.686824877468599,29.494603366395204
390,6.73469010815912,6.597674626485485,13.332364734644607,32.38844590916614
395,6.790937743593998,6.168665744440187,12.959603488034185,30.282411320116125
400,6.849769945385221,6.612416256609874,13.462186201995095,32.46081360186501
405,6.905819800806263,6.335637569562445,13.241457370368709,31.1020876807262
410,6.961942103393013,6.394795256192137,13.35673735958515,31.392496899426607
415,7.013533714151466,6.245624962513585,13.25915867666505,30.66020950097455
420,7.067817019298886,6.468128735251436,13.535945754550323,31.752496074030994
425,7.119281303273625,6.162110245729537,13.281391549003162,30.250229918725836
430,7.170456895247351,6.042533113370355,13.212990008617705,29.663217417708996
435,7.224280249084762,6.09816977484669,13.322450023931452,29.936341677817104
440,7.273140177385632,5.871240331957929,13.144380509343561,28.822329180642008
445,7.317951552619474,5.777881628227652,13.095833180847126,28.36402477839405
450,7.365910056326978,5.710109203796465,13.076019260123443,28.03132520966861
455,7.413980213878543,6.012395660773755,13.426375874652297,29.515270556348696
460,7.459358134382097,6.821216345773868,14.280574480155966,33.485827834390065
465,7.504243157995407,6.964499792115868,14.468742950111274,34.18921628778503
470,7.543408340315735,7.130546166342922,14.673954506658657,35.00434954526288
475,7.585125544665778,6.994937615759561,14.58006316042534,34.338637691611005
480,7.629249767930318,7.896358880457163,15.525608648387482,38.763777688031624
485,7.672609054759732,8.209158530571786,15.881767585331518,40.29933303467961
490,7.7154254816617,8.286054472228411,16.00147995389011,40.67682058718517
495,7.759572792881169,8.273330429604957,16.032903222486127,40.61435737255478
500,7.800876686511745,7.959977845629022,15.760854532140767,39.07608763493234
505,7.840148952731586,7.31440433992426,15.154553292655846,35.90692217078948
510,7.875976659753471,6.994798487394173,14.870775147147643,34.33795470074045
515,7.911686925197826,6.4631165764581135,14.37480350165594,31.727891036172046
520,7.9458420004063015,5.783003337001003,13.728845337407304,28.389167604762342
525,7.975309118280134,5.264015075750992,13.239324194031127,25.84141795377019
530,7.997352634634249,5.669150954836482,13.666503589470732,27.830258302602708
535,8.015915570820198,5.205342075101369,13.221257645921566,25.553388092424772
540,8.038067641799007,5.113535080563946,13.151602722362952,25.102701139066728
545,8.06002179061907,4.543574504045784,12.603596294664854,22.304724829533384
550,8.081305763670255,5.358533886761136,13.439839650431392,26.305417403744805
555,8.106581725349635,6.1993380460365755,14.305919771386211,30.43298379260155
560,8.137694637153121,5.615925206568594,13.753619843721715,27.56896938395416
565,8.169558584622543,5.758072237532553,13.927630822155095,28.26677909482455
570,8.202447810723337,5.351961412640994,13.554409223364331,26.273152668882755
575,8.236571029529278,4.950159629140718,13.186730658669997,24.30067962832643
580,8.267180750157756,4.893404108160697,13.160584858318453,24.022062808708096
585,8.296855473039136,5.204170108078314,13.50102558111745,25.547634824389824
590,8.32794729912553,4.869639124469911,13.19758642359544,23.905398842632636
595,8.355355326397481,5.0559892629401215,13.411344589337602,24.82020469798339
600,8.385560223354464,5.472947739398509,13.858507962752974,26.86708300370163
605,8.415366044816928,5.538727621887314,13.954093666704242,27.19000104475617
610,8.446690601730294,5.448202180917259,13.894892782647553,26.745605327439044
615,8.470943730678364,5.860738053925585,14.33168178460395,28.770772763687454
620,8.500913255846829,5.954766654388315,14.455679910235144,29.23236573581982
625,8.53343334196577,6.030794187785717,14.564227529751488,29.605590211480383
630,8.565313515389938,6.170262664884017,14.735576180273956,30.29025071419728
635,8.594403475318556,6.45225168030549,15.046655155624045,31.674554501518564
640,8.625268278049404,6.731086307435557,15.356354585484961,33.04337317623023
645,8.65695195424714,6.869192482906404,15.526144437153544,33.721346045035084
650,8.688769055215467,6.4952112417819166,15.183980296997383,31.885445991616482
655,8.714897829834948,5.992419230241597,14.707317060076544,29.41720486254323
660,8.74329423368773,6.7791605317672605,15.52245476545499,33.279372903792115
665,8.773611495814304,6.818204561145002,15.591816056959306,33.47104277312765
670,8.799985676148678,6.399432649429076,15.199418325577753,31.415262186973706
675,8.822804741783496,6.477177139117672,15.299981880901168,31.796915321080462
680,8.843901215519566,5.675280240589858,14.519181456109424,27.86034739479409
685,8.855366671549888,5.536909907139923,14.39227657868981,27.181077756005642
690,8.865690834491934,5.518634723329895,14.384325557821828,27.091363601273756
695,8.881146462916908,5.976822070084149,14.857968533001056,29.340637313111767
700,8.901201880211188,5.663766676025893,14.56496855623708,27.803826501568363
705,8.925357995156006,5.843718043827179,14.769076038983185,28.687220344440714
710,8.941875473066128,6.180783425308394,15.122658898374521,30.34189786250622
715,8.957637185745547,5.845785138005568,14.803422323751114,28.697367854249265
720,8.972281563727337,5.3206944763171915,14.292976040044529,26.119661092956367
725,8.987585072319243,5.1842924088501405,14.171877481169384,25.450053809456797
730,9.010668645802415,5.119064342796658,14.129732988599073,25.129844673854404
735,9.030474862437227,5.476139622551015,14.506614484988242,26.882752181205216
740,9.05167463010766,5.332568479661031,14.384243109768692,26.17795140534664
745,9.074895090149104,5.593836729232312,14.668731819381417,27.460535504758287
750,9.103195611822294,6.014232178947683,15.117427790769977,29.524286152434428
755,9.14750298300741,5.830193488188743,14.977696471196154,28.620827355465092
760,9.193246750225542,5.641098008157305,14.834344758382848,27.692544426494937
765,9.23941115891081,5.351539213932051,14.590950372842862,26.271080065909487
770,9.292347845194406,4.968146215208073,14.260494060402479,24.388977036566978
775,9.348284348619107,5.301738340840317,14.650022689459423,26.026604098894413
780,9.399045244375124,4.993185771172583,14.392231015547708,24.511897967024876
785,9.44897848486941,5.800519905059455,15.249498389928867,28.47515766174362
790,9.495181254721171,5.823360082225043,15.318541336946215,28.587281687944266
795,9.533529034579884,4.796096953412025,14.329625987991909,23.544375184419923
800,9.569033949142035,5.062921441105007,14.631955390247043,24.85423524514387
805,9.61124653681118,5.430690316423461,15.041936853234642,26.659638360585426
810,9.653333970254543,6.0911327823070645,15.744466752561607,29.901796589564654
815,9.695187312296062,6.202197925254964,15.897385237551026,30.447023139585973
820,9.732736638272849,6.300398352229705,16.033134990502553,30.929095899670337
825,9.768222852700493,5.746807921045429,15.515030773745922,28.21148177783011
830,9.799299247296421,5.147408852674218,14.946708099970639,25.268989854082882
835,9.8257755522022,5.164009336574191,14.989784888776391,25.35048278989725
840,9.866432103327426,5.633769275926568,15.500201379253994,27.656567167706648
845,9.914488614549777,5.541306539936675,15.455795154486452,27.202661133723062
850,9.96440949889335,5.62020454048073,15.58461403937408,27.58997693324798
855,10.008650644139578,5.465443702451945,15.474094346591524,26.830245161809803
860,10.05416695673658,5.765887928704472,15.820054885441053,28.305146869092813
865,10.099219015018969,5.575684859935752,15.67490387495472,27.371426709592512
870,10.14292325242372,5.573958407264965,15.716881659688685,27.362951432755118
875,10.176478396456705,5.220211721420073,15.396690117876778,25.62638422556969
880,10.211056931071576,5.3241329439169816,15.535189874988557,26.136540770747562
885,10.248164997610766,5.510224027422321,15.758389025033088,27.05007490716821
890,10.281056171129459,5.405974885850908,15.687031056980366,26.53830858433253
895,10.32104289203675,6.068891008928637,16.38993390096539,29.792610169382723
900,10.371373454522075,5.761104657713123,16.132478112235198,28.281665457452675
905,10.414585155868359,5.455230125646345,15.869815281514704,26.780105999357122
910,10.453750184807529,5.99882413382635,16.45257431863388,29.448646981934118
915,10.48587279073386,6.0143470367117695,16.50021982744563,29.524849997226717
920,10.492773432250656,5.298578350504542,15.791351782755198,26.011091485457417
925,10.49511068810706,5.73398846610117,16.229099154208228,28.148550177447703
930,10.495897171344742,5.15839982369862,15.654296995043362,25.32294529909437
935,10.496467685789678,5.207057025448327,15.703524711238005,25.561806903550497
940,10.48022165285488,5.325022316994443,15.805243969849322,26.14090676535069
945,10.468419998470807,5.337787471586906,15.806207470057714,26.203571801510616
950,10.461459797986855,5.77790041800964,16.239360215996495,28.36411701874721
955,10.45414588578977,5.721069112202597,16.17521499799237,28.08512816611578
960,10.45387634748169,6.174921376372952,16.628797723854642,30.31312065453354
965,10.458863099606798,5.914159156466608,16.373022256073405,29.0330206901178
970,10.457359895778517,5.897869360090809,16.355229255869325,28.9530529410762
975,10.463219076413163,5.647284655840435,16.110503732253598,27.72291511240899
980,10.472739128631462,6.628242582352648,17.100981710984108,32.53850614117317
985,10.499649458868184,6.912929751176654,17.41257921004484,33.93605535214444
990,10.524555112787544,7.319682708471461,17.844237821259007,35.93283405093789
995,10.544862460352496,7.4822438953589225,18.027106355711418,36.73085828015622
1000,10.575449490121859,7.57166939268955,18.14711888281141,37.16985429726295
1005,10.602606463998162,7.23707418923732,17.839680653235483,35.52730305580354
1010,10.622950481179666,7.481324214839168,18.104274696018834,36.72634350420042
1015,10.642587269357067,7.371358261942342,18.01394553129941,36.1865129549716
1020,10.661066217421338,6.974568550379723,17.63563476780106,34.238644525893676
1025,10.683517661314568,7.03358216597762,17.717099827292188,34.52834648982866
1030,10.70047964637552,6.975259726205142,17.67573937258066,34.24203755633283
1035,10.709307304541243,6.410291736566886,17.119599041108128,31.468570204767428
1040,10.709660323092526,5.863303615810795,16.57296393890332,28.783367286310952
1045,10.709834416078124,6.136702988499852,16.846537404577976,30.125503917055415
1050,10.7122611773159,5.951522857050528,16.66378403436643,29.21644170795196
1055,10.70378018016316,5.906663968546676,16.610444148709835,28.996226288716244
1060,10.689753661787037,6.092098692243612,16.781852354030647,29.90653830895885
1065,10.680749708760437,6.829971906810946,17.510721615571384,33.52880949552192
1070,10.674024296027621,6.750803304799072,17.424827600826692,33.14016529447683
1075,10.687509711684525,5.716529304405226,16.40403901608975,28.0628419323126
1080,10.692498087610419,5.905220603695276,16.597718691305694,28.989140709771643
1085,10.698536564578514,7.0610055481102565,17.75954211268877,34.662969789571825
1090,10.704181926991149,6.835993963764574,17.540175890755723,33.5583721940402
1095,10.70800021990394,7.054632150021776,17.76263236992572,34.63168233286433
1100,10.705545683739471,6.757387111108237,17.46293279484771,33.1724856598469
1105,10.694896052612727,7.96696369645626,18.661859749068988,39.110381664943944
1110,10.696706712368256,7.662810039778229,18.359516752146483,37.61727010441841
1115,10.7070518544182,7.633669675038108,18.34072152945631,37.474218017040535
1120,10.708501503629424,7.128299572044127,17.836801075673552,34.99332085681646
1125,10.71875049809919,7.151309573221578,17.87006007132077,35.1062785609618
1130,10.734927744303931,6.609805749437727,17.344733493741657,32.44799843968633
1135,10.748858599745429,6.642701802066823,17.391560401812253,32.609487461428245
1140,10.764448563691001,6.709749113387933,17.474197677078934,32.93862739921198
1145,10.785200080041237,6.589037671560932,17.37423775160217,32.34604649373105
1150,10.817630982515142,6.998854242899132,17.816485225414276,34.35786468800563
1155,10.847287326310294,6.962761128427754,17.810048454738048,34.18068106621004
1160,10.869738110877911,7.636762605259383,18.506500716137296,37.489401427688044
1165,10.884636797681896,7.576796050827413,18.46143284850931,37.19502142040758
1170,10.897176192423704,7.569554930559112,18.466731122982814,37.159474254866836
1175,10.910662287090007,7.393546498123644,18.304208785213653,36.29543655731067
1180,10.916349370228028,6.761950362600997,17.678299732829025,33.19488698038942
1185,10.919787107192684,6.388530167367467,17.308317274560153,31.36174114046581
1190,10.915786397483418,6.746568054824099,17.662354452307518,33.11937415631195
1195,10.90606593880814,6.714633727363188,17.62069966617133,32.962606310643835
1200,10.895430357751698,6.896421107452275,17.791851465203973,33.85501326617156
1205,10.8888778993141,7.2903903311502525,18.179268230464352,35.789035723173996
1210,10.891126882346553,7.1025384948478925,17.993665377194446,34.86685792819875
1215,10.902410312110975,6.945053751118763,17.847464063229737,34.093754313280584
1220,10.90897740889345,7.282995209450585,18.191972618344035,35.75273255384221
1225,10.919245582836325,7.376750419973255,18.29599600280958,36.21298343564926
1230,10.923254438302463,6.800341982387589,17.72359642069005,33.38335412543954
1235,10.928444874974552,6.452402585327225,17.380847460301776,31.675295304818302
1240,10.943172571342473,6.283061755854954,17.226234327197425,30.843989336264098
1245,10.96947560264655,5.642717939530448,16.612193542177,27.700496782836517
1250,11.00380988500359,5.6981943745104395,16.70200425951403,27.97283447987447
1255,11.032031649394467,5.768107658597749,16.800139307992218,28.316043678294765
1260,11.0569654582165,6.513551902845771,17.570517361062272,31.97548157876416
1265,11.07060068492224,6.094308233636041,17.164908918558282,29.917385102097978
1270,11.078131961414169,6.327458329571755,17.405590290985923,31.061935219895055
1275,11.076939060458772,5.946761676346158,17.02370073680493,29.193068739074683
1280,11.060080964133714,6.307462184055759,17.367543148189473,30.963772743855884
