#"Step","Potential Energy (kJ/mole)","Kinetic Energy (kJ/mole)","Total Energy (kJ/mole)","Temperature (K)"
5,4.341004182306089,3.142525956065869,7.483530138371958,15.426879576267917
10,4.342657256313204,6.66157327515064,11.004230531463843,32.7021288418849
15,4.3463334729863075,7.190142529113773,11.53647600210008,35.29691225580306
20,4.3516979225382935,7.666287883435643,12.017985805973936,37.634343082028806
25,4.358610698352209,8.844882198527939,13.203492896880148,43.42014495682539
30,4.369635146865573,11.717826408376052,16.087461555241624,57.52362889754292
35,4.382702072880322,15.095295238079757,19.477997310960077,74.10385946266015
40,4.396984997793551,17.676567018651653,22.073552016445205,86.7755030605871
45,4.419336104123445,21.808548178920788,26.227884283044233,107.05968739575178
50,4.444029165031231,24.200687215180515,28.644716380211747,118.80286513174974
55,4.472981216902222,24.258708844983875,28.7316900618861,119.08769736808098
60,4.511193434400501,26.88221926131826,31.39341269571876,131.96669338138446
65,4.555630451439933,27.25662034576373,31.81225079720366,133.8046544750122
70,4.606246778748041,29.579314088479737,34.18556086722778,145.2069204108802
75,4.664594597624497,27.187027483862977,31.851622081487474,133.46301825150275
80,4.735686068530345,33.13741303038483,37.873099098915176,162.6738768225731
85,4.803276296790524,34.09420940923151,38.89748570602203,167.37085712499058
90,4.874450980979725,33.28049769471203,38.154948675691756,163.37628944116287
95,4.950416969719836,37.2835579576008,42.23397492732063,183.02759207970627
100,5.032633997639689,40.76622833174611,45.7988623293858,200.12426437992056
105,5.119899228307733,41.984323553563314,47.104222781871044,206.10397896688494
110,5.205651694388231,37.842621130921735,43.048272825309965,185.772072275232
115,5.269992704607253,35.17320828587964,40.44320099048689,172.66773803089012
120,5.326715744785801,37.92083993652969,43.24755568131549,186.15605385934086
125,5.380516895938344,35.39436227987196,40.774879175810305,173.75339844573725
130,5.427818919581797,38.27206132397683,43.699880243558624,187.8802242001771
135,5.475796238206864,37.51634688782742,42.99214312603428,184.17036920979245
140,5.533298886164767,44.04004471408807,49.573343600252834,216.1956578357854
145,5.604560349905373,40.16352271191233,45.768083061817705,197.16554036392046
150,5.682300917728048,38.433842963345654,44.116143881073704,188.67442157613718
155,5.785161827791313,40.59521705866029,46.3803788864516,199.28475808690587
160,5.886980212858918,38.55718033003345,44.44416054289236,189.27989333030803
165,5.997027949732031,37.73157281773818,43.72860076747021,185.22692834370022
170,6.097045051393047,40.05620712822423,46.153252179617276,196.63872066239418
175,6.205065541441768,38.38359764757947,44.58866318902124,188.42776380896737
180,6.33519542084435,48.670405017996316,55.005600438840666,238.92642022304332
185,6.481884795600353,50.24795737992832,56.729842175528674,246.6707350363565
190,6.630672623252382,53.702156817626566,60.332829440878946,263.62764151947556
195,6.816764849530625,62.93907701502119,69.75584186455181,308.9723284156168
200,7.045496051508986,70.4445310774179,77.4900271289269,345.817127028118
205,7.281658047208138,66.84989874721673,74.13155679442487,328.1708256596495
210,7.535758295532223,66.18343335160893,73.71919164714114,324.8991004476603
215,7.825884472397024,67.68364683791926,75.50953131031628,332.26375331467307
220,8.15116668810038,61.7731255685097,69.92429225661007,303.24859126640126
225,8.486517944335025,54.9110655580844,63.39758350241943,269.5622590273253
230,8.851340792392875,54.3000308765823,63.15137166897517,266.5626470654063
235,9.216337174987371,50.36362059762571,59.579957772613085,247.23853385672174
240,9.611193151746773,51.499432300247406,61.11062545199418,252.81431289645846
245,10.087798764202244,59.6794320708389,69.76723083504115,292.97050354024043
250,10.585305288736484,58.0120081418945,68.59731343063098,284.7850029225731
255,11.110289733097671,58.13829150288611,69.24858123598378,285.404936768702
260,11.691436666565979,66.85934851462851,78.55078518119448,328.2172152283988
265,12.334223519205395,68.18314554881773,80.51736906802313,334.71582740069863
270,13.009582779221974,70.35578351926615,83.36536629848813,345.38145906182734
275,13.732794623755737,66.38172116514967,80.11451578890541,325.87250918435825
280,14.468990592559923,66.42225660633285,80.89124719889277,326.0715004984942
285,15.157071456863813,65.29813283181636,80.45520428868018,320.55309831479485
290,15.885727938658848,68.10307399114578,83.98880192980462,334.3227505272029
295,16.70929626017572,64.01198883778564,80.72128509796136,314.2393275485252
300,17.58899828783122,60.69760248137705,78.28660076920826,297.96877325418575
305,18.474067367692772,51.62736214688972,70.10142951458249,253.44232945573364
310,19.423150277037706,54.99264776871761,74.41579804575531,269.9627518018002
315,20.521318455453653,56.81423654888971,77.33555500434336,278.90505845004054
320,21.651241999975575,59.542445306713105,81.19368730668867,292.2980259399736
325,22.846235458244514,61.59772383109467,84.44395928933918,302.38753187710756
330,24.048484039123213,56.750775178478634,80.79925921760184,278.59352214683616
335,25.34013948320922,60.76651816102404,86.10665764423325,298.30708514267747
340,26.640834282341903,52.71983058865047,79.36066487099237,258.80533339827383
345,27.892673822859535,50.97472094647468,78.86739476933423,250.23846818423655
350,29.08255785852274,51.32361912786962,80.40617698639235,251.95123374417383
355,30.20451029522402,53.67244384962381,83.87695414484783,263.48177848265726
360,31.14635169562686,48.17746129919694,79.3238129948238,236.50652505141656
365,31.919928082261254,49.05776264884891,80.97769073111016,240.82798590862717
370,32.612487469221065,48.31882048644399,80.93130795566506,237.2004671824115
375,33.27853914741129,50.769959187172006,84.04849833458329,249.23327839527403
380,33.94284232667096,51.07179355791424,85.0146358845852,250.71500441902606
385,34.51908425299855,45.05973270823182,79.57881696123037,221.20137747372752
390,34.96525264536304,47.27212300300194,82.23737564836497,232.06215607358044
395,35.28683066091902,50.677087026277924,85.96391768719695,248.7773624658176
400,35.4686855664644,52.16285572798406,87.63154129444845,256.07110487553916
405,35.45141941945943,51.86125996998561,87.31267938944504,254.59055021842502
410,35.42395253626928,53.623868954732735,89.04782149100203,263.2433209283233
415,35.14094363692219,52.87164502434694,88.01258866126912,259.5506010747134
420,34.7243540010491,50.25628656744228,84.98064056849138,246.7116236000605
425,34.090834949650414,50.604698630949656,84.69553358060007,248.42200277330878
430,33.3907501338813,56.652760339820155,90.04351047370145,278.11236045276866
435,32.70621902184601,54.590271113324945,87.29649013517096,267.9874566749414
440,32.093510311124625,53.30669713972337,85.400207450848,261.68630231859913
445,31.53172017432217,52.078568293490264,83.61028846781244,255.65733196804146
450,30.908026331257364,55.00556929038243,85.9135956216398,270.0261844548482
455,30.210073752177035,53.42563022063176,83.6357039728088,262.2701531260258
460,29.43579099316979,59.05596529753096,88.49175629070075,289.90986157066163
465,28.55769585163564,55.19136307162811,83.74905892326375,270.93825911369515
470,27.684632676383842,56.85129743450101,84.53593011088485,279.08699292800776
475,26.86578164009513,54.55262840028333,81.41841004037846,267.8026659654499
480,26.156168481707383,57.69319503260372,83.84936351431111,283.2199270844974
485,25.578399487080937,62.090784703171465,87.6691841902524,304.808002162362
490,24.943590972497386,66.4751297592563,91.4187207317537,326.331058501951
495,24.315532806431456,72.70420332534042,97.01973613177188,356.910016040935
500,23.778598612730484,73.86301110997155,97.64160972270204,362.5986844546484
505,23.358191228272336,66.00803545688798,89.36622668516031,324.0380599224204
510,23.046389740317572,67.95711429818729,91.00350403850487,333.606224192102
515,22.78641945514614,67.04919194571328,89.83561140085942,329.14916990137044
520,22.62285533519041,70.38382924496673,93.00668458015714,345.5191374896464
525,22.575995489158643,62.27017978606355,84.8461752752222,305.6886651637316
530,22.560139775597268,60.730097662316574,83.29023743791385,298.12829436878326
535,22.55192396080517,56.79075190870873,79.3426758695139,278.78977070985036
540,22.695226245294048,58.3223913621784,81.01761760747245,286.30869584627715
545,22.881418475555893,60.025636794342354,82.90705526989825,294.6700467271196
550,23.08609199621238,54.001072436324435,77.08716443253681,265.0950391854253
555,23.31714723221308,52.73174376767422,76.0488909998873,258.8638160268151
560,23.53867329134875,59.31711810413089,82.85579139547964,291.19187895245756
565,23.631953281276505,57.01343475516519,80.6453880364417,279.88293636830844
570,23.70472722288309,57.07137038867965,80.77609761156273,280.1673464428464
575,23.863490149744518,60.252436003995555,84.11592615374008,295.7834199002383
580,24.12820813207826,60.57677399583063,84.70498212790889,297.37561777290506
585,24.465582500393563,66.0971483616035,90.56273086199707,324.47552140052983
590,24.823641868332842,63.85608204497798,88.67972391331082,313.47397020497704
595,25.129287317740385,56.08906312869276,81.21835044643313,275.3451314417386
600,25.381521806033835,55.36160844425,80.74313025028384,271.774005547797
605,25.54352795000859,49.13690808560859,74.68043603561718,241.21651638983002
610,25.63671274017309,54.22061875681184,79.85733149698493,266.1728074186627
615,25.684222632293892,60.05965694677625,85.74387957907014,294.83705403337626
620,25.80221161072897,63.73388156106779,89.53609317179676,312.8740794878279
625,26.007839030201154,70.33983655013762,96.34767558033877,345.3031742757057
630,26.307560928227197,64.21734923751222,90.52491016573941,315.24745610517283
635,26.620428733902134,67.06602321080216,93.68645194470429,329.23179575817244
640,26.87624873187103,66.17305622463361,93.04930495650464,324.8481584059926
645,27.118686084853515,64.80774914318081,91.92643522803434,318.1457705101846
650,27.343691070489022,59.36534375818718,86.70903482867621,291.4286220591222
655,27.52378482789806,59.12625567980397,86.65004050770203,290.25492197043405
660,27.704049321459173,57.168185291509104,84.87223461296827,280.64261756805547
665,27.855304378903362,53.71014512564185,81.56544950454521,263.66685668189353
670,27.956368025668162,47.87882873225734,75.8351967579255,235.040516906333
675,27.99163983832035,49.94432178216961,77.93596162048996,245.18016666327748
680,28.10413217962991,55.90969915737032,84.01383133700023,274.4646211692391
685,28.312697519301203,57.22639891871799,85.53909643801919,280.92839233307075
690,28.553872247358687,57.735047670767415,86.2889199181261,283.4253846106808
695,28.848877440410153,64.44990645404854,93.2987838944587,316.3890957365569
700,29.121255159535632,62.61750833518675,91.73876349472238,307.3937252891319
705,29.303630600881533,56.9212393120962,86.22486991297774,279.4303424939569
710,29.50691528851697,56.10893882764298,85.61585411615995,275.4427026371674
715,29.729328035285942,59.57282592176413,89.30215395705007,292.4471665028194
720,29.890584934127325,57.56558892661925,87.45617386074657,282.59349979074057
725,30.061658576129677,64.04301946092566,94.10467803705534,314.3916590465145
730,30.326223892328372,69.47556579696523,99.8017896892936,341.0604087371284
735,30.67562288491504,74.37758891532917,105.05321180024421,365.1247828693804
740,31.11650266155127,76.20836866645232,107.32487132800358,374.1122086364548
745,31.637289775455947,77.76238789514306,109.399677670599,381.7409976537553
750,32.043690728300035,75.34647958775759,107.39017031605762,369.8811349043639
755,32.4481390680162,76.45973019367133,108.90786926168752,375.3461599433739
760,32.81251263364473,85.24392087319875,118.05643350684348,418.4683659911778
765,33.24133272491077,85.12663105274545,118.36796377765623,417.8925820641867
770,33.583553753244594,87.5753837428902,121.1589374961348,429.9136801843173
775,33.97984716373883,74.62835969385867,108.60820685759751,366.35583414969017
780,34.439837926940534,76.52992945392178,110.96976738086232,375.6907730187683
785,34.905093625762156,84.07722733250705,118.98232095826921,412.74098584976036
790,35.43162448613185,79.67869683770638,115.11032132383824,391.1482921999741
795,35.96483638903963,77.144004221301,113.10884061034064,378.7053089747556
800,36.51736531641797,75.46514666510541,111.98251198152337,370.46367988171846
805,37.233503083356396,68.74188337881805,105.97538646217444,337.4587104631224
810,37.782574946023,57.07006845014424,94.85264339616724,280.1609551355726
815,38.270249454703425,52.89872673435493,91.16897618905836,259.6835470821144
820,38.58801419358143,48.76511435646325,87.35312855004469,239.39135498562092
825,38.619843081499056,47.43675705488126,86.05660013638033,232.87035614193405
830,38.470119507308894,44.02198916683509,82.49210867414399,216.10702189226436
835,38.38364680469455,52.311978884149305,90.69562568884385,256.80316087264356
840,38.39428075181335,51.2497484681338,89.64402921994716,251.5885975120803
845,38.34696604569915,50.93022800528194,89.27719405098108,250.02004922593025
850,38.35860733432705,53.95943579704806,92.3180431313751,264.8906420128778
855,38.22120476530641,53.562656595084974,91.78386136039138,262.9428251761586
860,38.072657336892895,50.618572322997416,88.69122965989031,248.4901096973219
865,37.92070623409485,48.6643101066398,86.58501634073465,238.89649987716888
870,37.66788837904522,46.61552722668637,84.28341560573159,228.8388815125686
875,37.466441387696015,48.5247170327251,85.99115842042112,238.2112277199711
880,37.27835108526939,49.330705714399755,86.60905679966915,242.16788249573494
885,37.10606726257325,49.4235982795828,86.52966554215604,242.62389859127214
890,36.86698416837325,53.205865352936414,90.07284952130966,261.19131202926843
895,36.59429704969585,53.977840785957596,90.57213783565345,264.9809933899163
900,36.35533231547767,53.30463985554339,89.65997217102105,261.67620296675847
905,36.16037277661847,63.910980591410315,100.07135336802878,313.74347100674095
910,35.98707359600399,62.93386784177601,98.92094143777999,308.9467562200426
915,35.81116056026651,64.22344225696911,100.03460281723562,315.27736716357975
920,35.505390885845955,62.72916468517796,98.23455557102392,307.94185411585335
925,35.17892852198182,57.197406207725166,92.37633472970698,280.78606508825914
930,34.92369115726453,58.30503110484906,93.22872226211359,286.22347312959096
935,34.65015237173063,50.47425412659998,85.12440649833061,247.78164158357728
940,34.43393236849587,48.48135808913552,82.91529045763139,237.99837563516348
945,34.25736828008442,51.439987769936025,85.69735605002045,252.52249554207467
950,34.074372943520174,47.845474347237506,81.91984729075767,234.8767778988482
955,33.951088587793855,48.50596261919405,82.4570512069879,238.11916099304128
960,33.876022234361095,48.13533282061791,82.011355054979,236.2997134053534
965,33.61983733790012,49.894484787543334,83.51432212544346,244.93551337312448
970,33.23373474761222,57.647508259075174,90.88124300668738,282.9956475198075
975,32.842433456987244,60.899818131470816,93.74225158845806,298.9614640150725
980,32.29083474210859,62.595561679916514,94.88639642202511,307.28598762437144
985,31.663557179369583,67.34963580675748,99.01319298612705,330.62406981582023
990,31.06260045766857,74.08951613611697,105.15211659378554,363.7106134603643
995,30.510586765302197,78.82010853304507,109.33069529834727,386.9334221983325
1000,30.127063771971706,74.2218151091595,104.3488788811312,364.36007836653357
1005,29.83052612641624,75.50024925441843,105.33077538083467,370.63600094627543
1010,29.55701739836784,72.01806467300968,101.57508207137752,353.5417134365611
1015,29.20781703621019,69.34076797970393,98.54858501591411,340.3986768300236
1020,28.870076376273225,66.45489420250237,95.3249705787756,326.23172073941026
1025,28.534375737697754,77.15767763696087,105.69205337465863,378.77243272798154
1030,28.197748702640443,79.69372485313983,107.89147355578027,391.2220657781731
1035,27.948872215311976,77.91769734660082,105.8665695619128,382.5034226068635
1040,27.64386097992888,75.17148341223347,102.81534439216236,369.02206644674084
1045,27.28420093469225,74.57139672987647,101.85559766456872,366.0761989778742
1050,26.89276867985905,69.39124248293561,96.28401116279466,340.64645969448145
1055,26.545472447814227,69.49393561643642,96.03940806425064,341.1505874649358
1060,26.248519134290056,70.38120035228636,96.62971948657642,345.5062320717227
1065,26.04373644522459,66.70053789865752,92.7442743438821,327.4376028139688
1070,25.946979396618925,63.91891018892826,89.86588958554718,313.78239795522376
1075,25.855549036547497,67.35385033664217,93.20939937318967,330.64475923761364
1080,25.77099301216524,64.08274856975908,89.85374158192431,314.586692018784
1085,25.661394304631475,61.57481907001631,87.23621337464779,302.27509080396476
1090,25.511875078686632,70.06444740703094,95.57632248571757,343.9512697228991
1095,25.32640306177729,69.80026844177014,95.12667150354744,342.6543967167128
1100,25.237169282188965,68.70762917192572,93.94479845411468,337.29055416716926
1105,25.17704979780443,76.97513212232532,102.15218192012975,377.8763040369727
1110,25.09573891584515,77.28851907678033,102.38425799262548,379.4147425016794
1115,25.075506858935533,72.89880429359822,97.97431115253374,357.8653257964339
1120,25.05376951529212,74.2820673975659,99.33583691285801,364.655861061867
1125,24.998105484430347,80.00173608170377,104.99984156613411,392.7341144287251
1130,25.025004052757694,74.46766618511916,99.49267023787685,365.56697848304805
1135,24.96618643925109,76.86462610510182,101.83081254435291,377.3338222742146
1140,25.007973700671297,81.68346552106118,106.69143922173248,400.98984179694406
1145,25.022604728133317,83.13508396793344,108.15768869606676,408.1159382186336
1150,25.0296207248986,79.75520869543584,104.78482942033443,391.52389425763425
1155,25.12611446085898,72.99520905803114,98.12132351889011,358.3385835235863
1160,25.18129164150154,73.67798274031705,98.8592743818186,361.6903672548036
1165,25.3842878046513,73.76944967694416,99.15373748159547,362.1393848401104
1170,25.617509541302883,71.36389737558676,96.98140691688964,350.33036044818044
1175,25.84666809645591,70.3069772468294,96.15364534328532,345.14186565894875
1180,26.142106688784512,65.88286210111453,92.02496878989903,323.4235751694951
1185,26.459384557142915,62.78126228304444,89.24064684018735,308.19760486532533
1190,26.76811738569454,63.708986162790296,90.47710354848483,312.75186623753194
1195,27.00872661675968,63.65901893636671,90.6677455531264,312.50657363038295
1200,27.16656505353121,54.29002735376832,81.45659240729954,266.51353907268094
1205,27.311716462473065,54.13762191915761,81.44933838163067,265.7653701412613
1210,27.4300185888405,60.06354902348683,87.49356761232733,294.8561605099989
1215,27.4940930802326,56.60741445039781,84.10150753063041,277.88975431198344
1220,27.545832292111974,59.64276245938895,87.18859475150091,292.7904898544807
1225,27.524955112992707,64.87630821083309,92.40126332382579,318.4823317654676
1230,27.43027124472102,62.393044036687755,89.82331528140878,306.2918143580761
1235,27.25694092034326,59.655133109743055,86.91207403008632,292.8512182417593
1240,27.17293232550032,53.00848922341231,80.18142154891262,260.22237881313356
1245,27.091425910800794,55.69967724425336,82.79110315505415,273.43360891752525
1250,27.068812071736208,57.31696164100936,84.38577371274556,281.37297106700015
1255,26.972080428628068,51.8681428434977,78.84022327212577,254.62433872559865
1260,26.86351463374665,47.834392617157974,74.69790725090462,234.82237691129114
1265,26.772595377053026,48.90283197815534,75.67542735520837,240.0674204167665
1270,26.632116029330007,49.023286984921235,75.65540301425125,240.65874246460803
1275,26.525728138862085,54.05423044308705,80.57995858194914,265.35599555628943
1280,26.401310471802883,54.39460100643498,80.79591147823787,267.02689844316603
1285,26.351857690980626,52.65601425167626,79.00787194265689,258.49205453939936
